index,I,II,III,aVR,aVL,aVF,V1,V2,V3,V4,V5,V6
0,-3,3,6,0,-4,4,-10,-33,-45,9,-31,-27
1,-2,4,6,-1,-4,5,-11,-33,-44,9,-30,-26
2,-2,4,6,-1,-4,5,-13,-33,-44,9,-30,-26
3,-2,3,5,0,-3,4,-14,-34,-45,9,-28,-25
4,-2,2,4,0,-3,3,-16,-35,-45,9,-28,-26
5,-2,1,3,0,-2,2,-18,-36,-46,8,-27,-25
6,-2,0,2,1,-2,1,-19,-37,-47,8,-27,-25
7,-2,-1,1,1,-1,0,-21,-38,-47,7,-27,-24
8,-2,-2,0,2,-1,-1,-22,-39,-48,8,-26,-24
9,-3,-2,1,2,-2,0,-22,-41,-47,8,-25,-24
10,-3,-4,-1,3,-1,-2,-23,-41,-47,9,-25,-23
11,-3,-3,0,3,-1,-1,-23,-40,-48,8,-24,-22
12,-2,-1,1,1,-1,0,-23,-41,-47,9,-24,-22
13,-2,-1,1,1,-1,0,-23,-41,-47,9,-23,-22
14,-2,-2,0,2,-1,-1,-22,-40,-46,10,-22,-21
15,-2,-3,-1,2,0,-2,-22,-40,-46,9,-23,-22
16,-1,-4,-3,2,1,-3,-21,-39,-45,9,-22,-22
17,0,-4,-4,2,2,-4,-22,-38,-45,10,-22,-23
18,0,-5,-5,2,2,-5,-21,-38,-46,9,-23,-23
19,0,-8,-8,4,4,-8,-21,-37,-46,10,-22,-22
20,1,-11,-12,5,6,-11,-20,-37,-45,10,-22,-22
21,1,-12,-13,5,7,-12,-19,-35,-45,9,-21,-23
22,0,-12,-12,6,6,-12,-20,-35,-46,9,-22,-23
23,1,-11,-12,5,6,-11,-19,-34,-46,8,-21,-23
24,1,-12,-13,5,7,-12,-18,-34,-46,8,-21,-23
25,0,-14,-14,7,7,-14,-17,-33,-46,8,-21,-23
26,0,-13,-13,6,6,-13,-16,-33,-45,8,-20,-23
27,0,-13,-13,6,6,-13,-15,-33,-45,8,-20,-23
28,-1,-13,-12,7,5,-12,-15,-32,-45,7,-19,-23
29,-3,-13,-10,8,3,-11,-13,-32,-44,7,-19,-24
30,-5,-15,-10,10,2,-12,-11,-31,-44,8,-19,-24
31,-6,-17,-11,11,2,-14,-10,-31,-43,7,-20,-25
32,-7,-18,-11,12,2,-14,-9,-30,-43,7,-20,-25
33,-9,-20,-11,14,1,-15,-9,-30,-44,6,-21,-26
34,-11,-22,-11,16,0,-16,-8,-31,-44,4,-21,-27
35,-13,-23,-10,18,-1,-16,-8,-31,-45,2,-23,-29
36,-16,-25,-9,20,-3,-17,-7,-32,-46,1,-24,-30
37,-16,-27,-11,21,-2,-19,-7,-34,-48,-1,-25,-31
38,-16,-28,-12,22,-2,-20,-8,-34,-49,-2,-26,-32
39,-17,-28,-11,22,-3,-19,-8,-35,-51,-4,-28,-34
40,-17,-28,-11,22,-3,-19,-9,-37,-52,-6,-29,-35
41,-18,-30,-12,24,-3,-21,-9,-37,-54,-7,-30,-35
42,-18,-31,-13,24,-2,-22,-8,-38,-54,-7,-30,-36
43,-17,-30,-13,23,-2,-21,-8,-37,-55,-8,-31,-36
44,-16,-29,-13,22,-1,-21,-9,-38,-54,-8,-31,-37
45,-15,-31,-16,23,0,-23,-9,-38,-54,-7,-30,-36
46,-16,-32,-16,24,0,-24,-9,-39,-55,-8,-30,-36
47,-17,-32,-15,24,-1,-23,-8,-38,-54,-8,-29,-37
48,-18,-33,-15,25,-1,-24,-8,-37,-54,-7,-29,-36
49,-18,-33,-15,25,-1,-24,-9,-37,-53,-7,-29,-36
50,-18,-33,-15,25,-1,-24,-9,-36,-52,-6,-27,-35
51,-19,-33,-14,26,-2,-23,-8,-37,-52,-6,-27,-36
52,-21,-34,-13,27,-4,-23,-8,-36,-51,-7,-26,-35
53,-21,-34,-13,27,-4,-23,-7,-36,-51,-7,-26,-35
54,-20,-31,-11,25,-4,-21,-8,-35,-50,-6,-24,-34
55,-19,-30,-11,24,-4,-20,-8,-35,-50,-7,-24,-35
56,-19,-28,-9,23,-5,-18,-8,-35,-49,-7,-23,-35
57,-19,-28,-9,23,-5,-18,-8,-35,-49,-7,-23,-34
58,-19,-26,-7,22,-6,-16,-8,-35,-49,-7,-22,-34
59,-18,-26,-8,22,-5,-17,-8,-35,-49,-7,-21,-34
60,-18,-25,-7,21,-5,-16,-9,-35,-49,-7,-20,-33
61,-17,-25,-8,21,-4,-16,-10,-37,-49,-7,-19,-33
62,-18,-26,-8,22,-5,-17,-11,-38,-51,-7,-18,-32
63,-18,-27,-9,22,-4,-18,-11,-39,-52,-7,-16,-31
64,-18,-28,-10,23,-4,-19,-12,-41,-54,-8,-15,-31
65,-17,-29,-12,23,-2,-20,-13,-41,-54,-8,-15,-31
66,-18,-31,-13,24,-2,-22,-13,-41,-55,-9,-15,-31
67,-19,-32,-13,25,-3,-22,-12,-40,-54,-10,-16,-32
68,-20,-34,-14,27,-3,-24,-9,-36,-51,-10,-17,-34
69,-22,-37,-15,29,-3,-26,-3,-28,-44,-9,-19,-38
70,-24,-41,-17,32,-3,-29,7,-16,-33,-7,-24,-45
71,-27,-42,-15,34,-6,-28,19,-2,-18,-4,-28,-51
72,-31,-43,-12,37,-9,-27,33,17,2,3,-30,-57
73,-33,-44,-11,38,-11,-27,49,40,27,13,-30,-62
74,-33,-43,-10,38,-11,-26,65,66,57,27,-26,-64
75,-31,-41,-10,36,-10,-25,82,94,92,47,-18,-63
76,-24,-33,-9,28,-7,-21,96,124,131,74,-1,-55
77,-13,-15,-2,14,-5,-8,103,150,173,109,25,-37
78,3,14,11,-8,-4,12,101,167,210,151,65,-8
79,24,53,29,-38,-2,41,89,173,239,197,115,33
80,48,98,50,-73,-1,74,69,168,258,244,173,81
81,74,153,79,-113,-2,116,39,152,266,291,236,138
82,102,219,117,-160,-7,168,-1,121,261,336,303,201
83,128,290,162,-209,-17,226,-51,71,236,373,369,267
84,150,358,208,-254,-29,283,-108,5,190,398,427,328
85,165,415,250,-290,-42,332,-164,-71,127,408,470,377
86,172,454,282,-313,-55,368,-215,-147,57,404,494,409
87,173,474,301,-323,-64,387,-259,-218,-16,386,497,423
88,169,477,308,-323,-69,392,-298,-284,-91,353,481,420
89,157,461,304,-309,-73,382,-328,-344,-167,304,443,397
90,137,423,286,-280,-74,354,-346,-391,-236,243,387,356
91,113,367,254,-240,-70,310,-349,-417,-291,177,317,298
92,87,302,215,-194,-64,258,-341,-425,-331,107,240,232
93,63,237,174,-150,-55,205,-326,-422,-362,36,163,166
94,41,177,136,-109,-47,156,-307,-410,-384,-32,91,103
95,21,123,102,-72,-40,112,-283,-389,-394,-93,28,48
96,3,76,73,-39,-35,74,-254,-359,-390,-139,-20,2
97,-12,38,50,-13,-31,44,-221,-321,-373,-170,-53,-34
98,-21,13,34,4,-27,23,-190,-281,-348,-186,-71,-57
99,-25,-2,23,13,-24,10,-163,-243,-318,-191,-76,-70
100,-27,-11,16,19,-21,2,-139,-206,-283,-184,-69,-74
101,-26,-15,11,20,-18,-2,-116,-169,-240,-163,-52,-72
102,-24,-18,6,21,-15,-6,-94,-133,-193,-133,-29,-67
103,-22,-19,3,20,-12,-8,-74,-101,-148,-100,-5,-62
104,-19,-18,1,18,-10,-8,-58,-75,-109,-70,18,-55
105,-17,-18,-1,17,-8,-9,-47,-54,-76,-45,39,-48
106,-16,-17,-1,16,-7,-9,-35,-37,-49,-24,57,-43
107,-15,-18,-3,16,-6,-10,-24,-23,-26,-6,73,-39
108,-14,-20,-6,17,-4,-13,-13,-10,-8,7,86,-36
109,-14,-22,-8,18,-3,-15,-5,-2,3,15,96,-34
110,-14,-24,-10,19,-2,-17,2,4,10,19,102,-33
111,-15,-26,-11,20,-2,-18,8,8,14,19,108,-32
112,-15,-28,-13,21,-1,-20,12,12,16,19,112,-32
113,-14,-30,-16,22,1,-23,15,15,18,19,116,-32
114,-15,-32,-17,23,1,-24,18,17,19,18,120,-34
115,-15,-33,-18,24,1,-25,19,18,20,18,123,-35
116,-14,-33,-19,23,2,-26,19,19,21,18,126,-35
117,-15,-34,-19,24,2,-26,19,19,22,17,129,-37
118,-15,-34,-19,24,2,-26,19,20,23,17,133,-37
119,-15,-35,-20,25,2,-27,20,21,24,17,136,-38
120,-16,-36,-20,26,2,-28,20,22,25,17,140,-38
121,-16,-36,-20,26,2,-28,20,23,26,17,143,-37
122,-17,-37,-20,27,1,-28,22,24,29,19,147,-37
123,-16,-37,-21,26,2,-29,23,25,31,20,151,-35
124,-16,-39,-23,27,3,-31,24,27,32,20,156,-35
125,-17,-40,-23,28,3,-31,25,27,34,21,160,-34
126,-16,-39,-23,27,3,-31,25,29,35,22,164,-34
127,-16,-39,-23,27,3,-31,26,31,38,24,170,-33
128,-15,-39,-24,27,4,-31,26,31,39,25,175,-31
129,-13,-38,-25,25,6,-31,26,32,41,27,180,-31
130,-13,-38,-25,25,6,-31,26,33,41,27,186,-31
131,-12,-37,-25,24,6,-31,25,33,43,28,190,-30
132,-11,-35,-24,23,6,-29,25,34,44,28,195,-30
133,-10,-34,-24,22,7,-29,26,35,46,30,200,-29
134,-10,-34,-24,22,7,-29,26,35,47,30,205,-28
135,-10,-33,-23,21,6,-28,27,35,48,31,208,-28
136,-11,-32,-21,21,5,-26,27,36,49,31,211,-28
137,-11,-31,-20,21,4,-25,27,37,50,31,214,-28
138,-11,-32,-21,21,5,-26,28,39,52,32,218,-27
139,-12,-33,-21,22,4,-27,29,40,53,32,221,-27
140,-12,-33,-21,22,4,-27,29,41,54,33,225,-26
141,-12,-33,-21,22,4,-27,30,41,56,34,228,-26
142,-12,-33,-21,22,4,-27,30,42,57,34,232,-27
143,-11,-34,-23,22,6,-28,30,43,58,35,236,-26
144,-11,-34,-23,22,6,-28,31,44,60,37,239,-25
145,-11,-34,-23,22,6,-28,31,45,61,38,243,-25
146,-10,-34,-24,22,7,-29,30,44,63,39,246,-24
147,-10,-32,-22,21,6,-27,30,45,64,39,248,-24
148,-9,-30,-21,19,6,-25,29,45,64,39,251,-24
149,-8,-29,-21,18,6,-25,30,46,65,40,252,-23
150,-8,-27,-19,17,5,-23,30,46,67,40,254,-23
151,-7,-26,-19,16,6,-22,29,47,68,40,255,-22
152,-7,-24,-17,15,5,-20,30,47,70,41,257,-21
153,-6,-23,-17,14,5,-20,31,49,71,41,257,-20
154,-5,-22,-17,13,6,-19,31,50,73,42,259,-20
155,-4,-22,-18,13,7,-20,32,52,76,44,261,-18
156,-3,-22,-19,12,8,-20,32,53,78,45,263,-16
157,-3,-23,-20,13,8,-21,33,54,79,46,264,-16
158,-3,-24,-21,13,9,-22,34,56,82,48,264,-15
159,-2,-23,-21,12,9,-22,34,57,84,50,266,-14
160,0,-23,-23,11,11,-23,35,59,85,51,267,-13
161,0,-23,-23,11,11,-23,35,60,87,53,269,-12
162,0,-23,-23,11,11,-23,34,60,88,54,270,-11
163,1,-21,-22,10,11,-21,34,61,90,55,270,-11
164,2,-19,-21,8,11,-20,35,63,93,57,272,-9
165,3,-18,-21,7,12,-19,34,64,95,57,273,-8
166,4,-16,-20,6,12,-18,34,64,96,59,273,-8
167,3,-16,-19,6,11,-17,34,65,98,60,274,-7
168,3,-15,-18,6,10,-16,34,67,99,61,274,-7
169,4,-13,-17,4,10,-15,35,68,101,62,275,-7
170,4,-12,-16,4,10,-14,35,70,104,64,275,-6
171,5,-12,-17,3,11,-14,36,72,106,65,277,-6
172,5,-11,-16,3,10,-13,36,73,108,65,278,-6
173,5,-11,-16,3,10,-13,36,75,110,67,278,-5
174,5,-10,-15,2,10,-12,37,76,112,68,280,-4
175,6,-8,-14,1,10,-11,37,78,115,71,281,-3
176,7,-7,-14,0,10,-10,37,80,117,72,283,-1
177,7,-6,-13,0,10,-9,37,82,120,74,284,0
178,7,-6,-13,0,10,-9,36,83,122,76,286,0
179,8,-4,-12,-2,10,-8,36,85,124,78,287,2
180,9,-2,-11,-3,10,-6,36,87,127,81,289,4
181,11,-1,-12,-5,11,-6,36,88,130,83,292,5
182,12,0,-12,-6,12,-6,35,90,133,85,294,7
183,12,0,-12,-6,12,-6,35,91,135,88,295,7
184,13,2,-11,-7,12,-4,35,94,138,90,297,9
185,15,3,-12,-9,13,-4,35,96,142,92,298,10
186,16,4,-12,-10,14,-4,36,97,145,95,300,12
187,16,5,-11,-10,13,-3,36,100,148,97,301,13
188,17,5,-12,-11,14,-3,37,102,150,100,303,14
189,18,7,-11,-12,14,-2,36,105,153,103,304,16
190,19,8,-11,-13,15,-1,37,107,157,105,306,17
191,20,8,-12,-14,16,-2,37,108,160,108,307,18
192,20,10,-10,-15,15,0,38,111,163,111,309,20
193,21,11,-10,-16,15,0,38,113,165,113,310,22
194,23,13,-10,-18,16,1,37,114,169,116,312,23
195,23,16,-7,-19,15,4,37,116,171,119,313,25
196,25,18,-7,-21,16,5,36,117,174,121,314,26
197,25,21,-4,-23,14,8,36,119,175,124,314,29
198,26,24,-2,-25,14,11,35,120,177,126,316,30
199,28,28,0,-28,14,14,34,121,180,128,317,32
200,29,30,1,-29,14,15,34,122,182,130,318,33
201,30,33,3,-31,13,18,33,122,183,131,319,36
202,31,35,4,-33,13,19,33,123,185,134,320,38
203,32,37,5,-34,13,21,32,123,186,136,322,40
204,33,40,7,-36,13,23,31,124,188,138,323,42
205,34,42,8,-38,13,25,31,124,189,140,324,43
206,35,44,9,-39,13,26,30,125,190,141,324,45
207,37,46,9,-41,14,27,29,124,190,143,325,48
208,38,48,10,-43,14,29,27,124,191,145,326,50
209,39,51,12,-45,13,31,26,123,191,146,326,51
210,39,53,14,-46,12,33,25,123,191,148,327,53
211,40,54,14,-47,13,34,23,122,190,149,327,55
212,42,57,15,-49,13,36,21,120,190,150,328,57
213,43,59,16,-51,13,37,20,119,189,150,328,59
214,43,61,18,-52,12,39,18,118,189,151,328,60
215,44,63,19,-53,12,41,17,117,188,150,327,62
216,44,64,20,-54,12,42,15,115,186,151,328,64
217,45,66,21,-55,12,43,14,114,185,151,327,65
218,46,67,21,-56,12,44,12,112,183,150,327,67
219,46,68,22,-57,12,45,11,111,182,150,326,68
220,47,68,21,-57,13,44,9,109,180,149,326,68
221,47,69,22,-58,12,45,8,107,177,149,325,70
222,48,69,21,-58,13,45,8,104,175,148,324,71
223,47,70,23,-58,12,46,7,102,172,147,322,71
224,47,69,22,-58,12,45,5,98,168,145,321,72
225,47,70,23,-58,12,46,4,95,166,144,319,73
226,48,71,23,-59,12,47,2,93,163,142,318,73
227,47,71,24,-59,11,47,0,89,158,139,316,74
228,46,72,26,-59,10,49,-1,85,154,137,314,74
229,46,72,26,-59,10,49,-3,82,149,134,311,73
230,46,73,27,-59,9,50,-4,78,145,132,309,74
231,46,72,26,-59,10,49,-5,75,140,129,306,74
232,47,73,26,-60,10,49,-7,71,134,125,303,74
233,47,73,26,-60,10,49,-8,67,129,122,301,74
234,46,73,27,-59,9,50,-10,63,123,118,298,73
235,45,71,26,-58,9,48,-11,58,118,114,295,72
236,44,70,26,-57,9,48,-11,54,112,110,290,70
237,44,70,26,-57,9,48,-12,49,105,105,286,69
238,42,70,28,-56,7,49,-14,45,99,100,281,66
239,40,68,28,-54,6,48,-15,40,92,94,276,64
240,39,67,28,-53,5,47,-16,35,85,88,271,61
241,37,65,28,-51,4,46,-17,31,79,83,265,58
242,34,62,28,-48,3,45,-17,26,72,77,260,56
243,32,60,28,-46,2,44,-18,22,66,70,254,53
244,31,57,26,-44,2,41,-18,18,60,65,247,49
245,29,54,25,-41,2,39,-18,15,53,58,242,47
246,27,50,23,-38,2,36,-18,11,47,53,236,44
247,25,45,20,-35,2,32,-17,8,42,47,231,42
248,23,41,18,-32,2,29,-17,6,36,42,225,39
249,21,38,17,-29,2,27,-16,3,31,36,218,35
250,18,34,16,-26,1,25,-16,1,27,30,212,32
251,16,30,14,-23,1,22,-14,-2,21,25,207,30
252,13,26,13,-19,0,19,-13,-3,16,20,201,26
253,11,23,12,-17,0,17,-13,-6,12,14,195,23
254,8,21,13,-14,-2,17,-12,-8,7,9,188,19
255,7,19,12,-13,-2,15,-12,-11,3,3,182,15
256,5,17,12,-11,-3,14,-11,-12,-2,-3,177,12
257,3,15,12,-9,-4,13,-11,-14,-6,-8,170,8
258,2,12,10,-7,-4,11,-10,-16,-9,-12,164,5
259,0,9,9,-4,-4,9,-10,-17,-13,-17,159,1
260,-2,7,9,-2,-5,8,-9,-19,-16,-21,153,-2
261,-4,4,8,0,-6,6,-9,-20,-19,-25,148,-4
262,-5,2,7,1,-6,4,-8,-20,-22,-29,144,-7
263,-7,-1,6,4,-6,2,-6,-21,-23,-32,139,-9
264,-10,-3,7,6,-8,2,-5,-21,-25,-36,135,-11
265,-12,-7,5,9,-8,-1,-5,-22,-28,-39,131,-14
266,-13,-9,4,11,-8,-2,-3,-22,-29,-41,127,-16
267,-15,-11,4,13,-9,-3,-2,-23,-31,-44,124,-17
268,-16,-12,4,14,-10,-4,-2,-23,-32,-46,121,-19
269,-17,-13,4,15,-10,-4,-1,-22,-33,-47,118,-20
270,-18,-15,3,16,-10,-6,1,-22,-33,-49,116,-22
271,-18,-16,2,17,-10,-7,1,-21,-34,-50,113,-23
272,-18,-17,1,17,-9,-8,2,-21,-35,-52,110,-24
273,-18,-17,1,17,-9,-8,1,-22,-35,-53,108,-25
274,-18,-17,1,17,-9,-8,2,-21,-36,-54,106,-26
275,-18,-18,0,18,-9,-9,2,-21,-35,-55,103,-27
276,-19,-19,0,19,-9,-9,3,-22,-36,-55,101,-27
277,-19,-20,-1,19,-9,-10,2,-22,-36,-56,100,-28
278,-19,-20,-1,19,-9,-10,3,-21,-35,-56,97,-28
279,-19,-19,0,19,-9,-9,3,-21,-36,-57,96,-29
280,-20,-20,0,20,-10,-10,4,-20,-35,-57,94,-29
281,-20,-21,-1,20,-9,-11,4,-19,-35,-56,94,-29
282,-20,-23,-3,21,-8,-13,6,-19,-34,-56,92,-29
283,-20,-24,-4,22,-8,-14,6,-18,-33,-55,91,-28
284,-20,-24,-4,22,-8,-14,6,-18,-33,-56,89,-28
285,-20,-25,-5,22,-7,-15,7,-16,-32,-55,88,-29
286,-21,-26,-5,23,-8,-15,7,-16,-32,-55,88,-28
287,-21,-27,-6,24,-7,-16,8,-15,-32,-54,87,-28
288,-22,-28,-6,25,-8,-17,8,-15,-31,-55,85,-29
289,-22,-28,-6,25,-8,-17,7,-14,-31,-54,84,-29
290,-21,-27,-6,24,-7,-16,7,-14,-30,-54,83,-30
291,-21,-27,-6,24,-7,-16,6,-15,-30,-53,82,-29
292,-21,-27,-6,24,-7,-16,6,-14,-29,-53,82,-29
293,-20,-26,-6,23,-7,-16,7,-14,-29,-52,81,-28
294,-20,-26,-6,23,-7,-16,7,-15,-28,-52,80,-29
295,-19,-26,-7,22,-6,-16,6,-14,-28,-51,80,-28
296,-18,-25,-7,21,-5,-16,7,-14,-27,-51,79,-28
297,-19,-25,-6,22,-6,-15,6,-13,-26,-50,79,-27
298,-19,-25,-6,22,-6,-15,7,-12,-27,-49,78,-28
299,-19,-25,-6,22,-6,-15,7,-13,-27,-50,76,-28
300,-19,-26,-7,22,-6,-16,6,-12,-26,-50,75,-27
301,-19,-26,-7,22,-6,-16,7,-12,-26,-49,73,-27
302,-20,-26,-6,23,-7,-16,7,-11,-25,-50,72,-27
303,-20,-26,-6,23,-7,-16,6,-11,-25,-50,72,-27
304,-19,-25,-6,22,-6,-15,6,-11,-25,-49,71,-27
305,-20,-25,-5,22,-7,-15,5,-12,-26,-50,69,-27
306,-20,-25,-5,22,-7,-15,5,-12,-25,-49,69,-27
307,-19,-25,-6,22,-6,-15,6,-12,-24,-49,68,-26
308,-19,-25,-6,22,-6,-15,6,-11,-24,-47,69,-25
309,-18,-25,-7,21,-5,-16,5,-11,-23,-47,69,-25
310,-18,-24,-6,21,-6,-15,5,-11,-23,-47,68,-24
311,-18,-24,-6,21,-6,-15,5,-11,-24,-46,68,-24
312,-18,-24,-6,21,-6,-15,5,-11,-24,-45,67,-24
313,-18,-25,-7,21,-5,-16,6,-10,-23,-44,67,-22
314,-17,-24,-7,20,-5,-15,5,-10,-23,-45,66,-22
315,-16,-24,-8,20,-4,-16,5,-10,-23,-45,66,-21
316,-17,-23,-6,20,-5,-14,4,-11,-24,-46,65,-22
317,-17,-24,-7,20,-5,-15,5,-11,-25,-45,63,-22
318,-16,-24,-8,20,-4,-16,5,-10,-24,-45,63,-21
319,-16,-23,-7,19,-4,-15,4,-11,-25,-45,62,-21
320,-16,-23,-7,19,-4,-15,4,-12,-26,-46,60,-20
321,-16,-23,-7,19,-4,-15,3,-12,-26,-46,60,-21
322,-17,-24,-7,20,-5,-15,4,-12,-26,-47,59,-21
323,-17,-24,-7,20,-5,-15,3,-13,-27,-47,57,-20
324,-17,-23,-6,20,-5,-14,3,-13,-27,-48,57,-21
325,-17,-23,-6,20,-5,-14,2,-14,-28,-48,56,-21
326,-17,-23,-6,20,-5,-14,2,-15,-29,-49,54,-22
327,-17,-23,-6,20,-5,-14,2,-15,-30,-49,53,-21
328,-17,-22,-5,19,-6,-13,1,-16,-31,-51,52,-21
329,-17,-23,-6,20,-5,-14,1,-16,-32,-52,50,-22
330,-18,-23,-5,20,-6,-14,0,-17,-32,-52,49,-22
331,-18,-25,-7,21,-5,-16,0,-16,-33,-53,47,-22
332,-17,-25,-8,21,-4,-16,1,-17,-34,-54,46,-22
333,-17,-26,-9,21,-4,-17,1,-17,-34,-54,46,-21
334,-17,-26,-9,21,-4,-17,0,-18,-35,-54,45,-21
335,-18,-27,-9,22,-4,-18,0,-17,-36,-55,43,-22
336,-18,-27,-9,22,-4,-18,1,-18,-36,-55,42,-21
337,-18,-27,-9,22,-4,-18,1,-18,-37,-56,40,-21
338,-17,-26,-9,21,-4,-17,1,-19,-37,-56,39,-22
339,-17,-24,-7,20,-5,-15,0,-19,-38,-56,38,-22
340,-17,-24,-7,20,-5,-15,0,-20,-40,-57,36,-23
341,-17,-23,-6,20,-5,-14,-1,-20,-40,-58,35,-23
342,-16,-23,-7,19,-4,-15,-1,-21,-41,-58,33,-24
343,-16,-22,-6,19,-5,-14,-2,-22,-43,-59,32,-24
344,-17,-22,-5,19,-6,-13,-2,-22,-43,-60,30,-24
345,-17,-22,-5,19,-6,-13,-3,-23,-44,-60,30,-25
346,-16,-23,-7,19,-4,-15,-3,-23,-44,-60,29,-25
347,-17,-25,-8,21,-4,-16,-2,-23,-45,-61,27,-24
348,-18,-25,-7,21,-5,-16,-2,-24,-45,-61,27,-24
349,-18,-26,-8,22,-5,-17,-2,-23,-45,-62,26,-24
350,-18,-28,-10,23,-4,-19,-1,-23,-46,-62,24,-23
351,-18,-28,-10,23,-4,-19,-1,-24,-46,-63,23,-23
352,-17,-28,-11,22,-3,-19,-1,-23,-46,-63,23,-23
353,-17,-28,-11,22,-3,-19,-1,-24,-47,-63,21,-23
354,-17,-27,-10,22,-3,-18,-2,-24,-48,-65,19,-24
355,-17,-27,-10,22,-3,-18,-2,-25,-48,-65,18,-24
356,-17,-26,-9,21,-4,-17,-2,-25,-49,-66,16,-24
357,-17,-25,-8,21,-4,-16,-3,-26,-50,-66,15,-25
358,-18,-25,-7,21,-5,-16,-3,-26,-50,-68,13,-25
359,-17,-24,-7,20,-5,-15,-3,-26,-51,-68,13,-25
360,-18,-24,-6,21,-6,-15,-3,-27,-52,-69,11,-26
361,-18,-23,-5,20,-6,-14,-4,-27,-52,-69,10,-26
362,-18,-23,-5,20,-6,-14,-4,-28,-53,-70,8,-26
363,-18,-23,-5,20,-6,-14,-5,-28,-53,-69,8,-26
364,-18,-22,-4,20,-7,-13,-5,-27,-53,-69,7,-26
365,-18,-22,-4,20,-7,-13,-4,-28,-54,-68,7,-25
366,-18,-21,-3,19,-7,-12,-5,-28,-53,-69,5,-25
367,-18,-21,-3,19,-7,-12,-5,-27,-54,-68,4,-26
368,-17,-19,-2,18,-7,-10,-6,-28,-54,-69,4,-26
369,-18,-19,-1,18,-8,-10,-5,-27,-55,-69,2,-25
370,-17,-19,-2,18,-7,-10,-5,-27,-54,-70,1,-25
371,-18,-18,0,18,-9,-9,-6,-28,-55,-70,1,-26
372,-18,-18,0,18,-9,-9,-6,-28,-55,-70,0,-26
373,-18,-18,0,18,-9,-9,-6,-29,-56,-71,-2,-27
374,-18,-19,-1,18,-8,-10,-7,-29,-56,-71,-2,-26
375,-18,-19,-1,18,-8,-10,-7,-30,-56,-72,-3,-26
376,-18,-19,-1,18,-8,-10,-7,-30,-56,-72,-5,-27
377,-19,-19,0,19,-9,-9,-8,-29,-56,-71,-6,-26
378,-18,-19,-1,18,-8,-10,-8,-29,-57,-72,-6,-26
379,-18,-19,-1,18,-8,-10,-8,-30,-57,-72,-7,-27
380,-19,-20,-1,19,-9,-10,-8,-30,-56,-71,-7,-26
381,-19,-20,-1,19,-9,-10,-7,-29,-56,-71,-8,-26
382,-19,-19,0,19,-9,-9,-7,-29,-57,-70,-8,-25
383,-19,-19,0,19,-9,-9,-8,-30,-57,-70,-10,-26
384,-19,-18,1,18,-10,-8,-7,-30,-56,-71,-10,-25
385,-18,-18,0,18,-9,-9,-7,-30,-57,-70,-11,-25
386,-18,-17,1,17,-9,-8,-7,-29,-57,-70,-11,-25
387,-18,-18,0,18,-9,-9,-8,-29,-56,-71,-13,-26
388,-18,-18,0,18,-9,-9,-8,-30,-57,-71,-14,-26
389,-18,-18,0,18,-9,-9,-9,-30,-57,-72,-14,-25
390,-18,-18,0,18,-9,-9,-9,-30,-56,-72,-15,-26
391,-17,-19,-2,18,-7,-10,-8,-29,-57,-71,-15,-25
392,-17,-19,-2,18,-7,-10,-9,-29,-57,-72,-16,-26
393,-17,-19,-2,18,-7,-10,-9,-30,-56,-72,-16,-26
394,-18,-20,-2,19,-8,-11,-8,-30,-57,-71,-17,-27
395,-19,-20,-1,19,-9,-10,-8,-29,-57,-72,-17,-27
396,-18,-20,-2,19,-8,-11,-9,-29,-56,-72,-16,-27
397,-18,-19,-1,18,-8,-10,-9,-30,-56,-71,-16,-26
398,-17,-19,-2,18,-7,-10,-9,-30,-55,-71,-17,-26
399,-17,-19,-2,18,-7,-10,-9,-29,-55,-71,-17,-25
400,-18,-20,-2,19,-8,-11,-9,-29,-56,-71,-18,-25
401,-17,-20,-3,18,-7,-11,-9,-30,-55,-71,-18,-26
402,-16,-21,-5,18,-5,-13,-9,-29,-55,-70,-17,-25
403,-16,-20,-4,18,-6,-12,-9,-29,-56,-70,-17,-25
404,-16,-21,-5,18,-5,-13,-9,-29,-56,-71,-18,-24
405,-17,-21,-4,19,-6,-12,-9,-29,-55,-70,-18,-25
406,-17,-22,-5,19,-6,-13,-9,-29,-55,-70,-19,-25
407,-16,-23,-7,19,-4,-15,-10,-29,-56,-71,-18,-24
408,-17,-22,-5,19,-6,-13,-10,-29,-56,-71,-18,-24
409,-17,-22,-5,19,-6,-13,-9,-29,-55,-71,-19,-23
410,-19,-22,-3,20,-8,-12,-9,-28,-56,-70,-19,-23
411,-19,-23,-4,21,-7,-13,-9,-28,-56,-70,-19,-23
412,-20,-24,-4,22,-8,-14,-8,-28,-55,-68,-18,-22
413,-20,-25,-5,22,-7,-15,-8,-28,-55,-68,-19,-22
414,-20,-25,-5,22,-7,-15,-8,-27,-54,-68,-18,-22
415,-19,-26,-7,22,-6,-16,-7,-27,-54,-67,-18,-21
416,-19,-26,-7,22,-6,-16,-7,-27,-53,-67,-17,-21
417,-18,-26,-8,22,-5,-17,-6,-26,-53,-66,-17,-20
418,-18,-27,-9,22,-4,-18,-6,-26,-52,-66,-17,-20
419,-18,-28,-10,23,-4,-19,-7,-25,-52,-67,-18,-21
420,-17,-27,-10,22,-3,-18,-7,-25,-51,-66,-18,-20
421,-17,-26,-9,21,-4,-17,-6,-26,-52,-66,-19,-21
422,-17,-27,-10,22,-3,-18,-6,-25,-52,-67,-19,-21
423,-18,-27,-9,22,-4,-18,-7,-25,-51,-67,-19,-20
424,-17,-27,-10,22,-3,-18,-7,-26,-52,-66,-20,-21
425,-17,-27,-10,22,-3,-18,-8,-26,-52,-67,-20,-21
426,-17,-26,-9,21,-4,-17,-8,-27,-53,-67,-21,-20
427,-17,-25,-8,21,-4,-16,-8,-27,-52,-67,-21,-20
428,-17,-26,-9,21,-4,-17,-9,-26,-52,-67,-22,-21
429,-17,-25,-8,21,-4,-16,-9,-27,-53,-66,-22,-20
430,-17,-24,-7,20,-5,-15,-8,-27,-52,-66,-22,-20
431,-17,-24,-7,20,-5,-15,-9,-26,-52,-66,-23,-21
432,-17,-23,-6,20,-5,-14,-9,-26,-51,-65,-24,-21
433,-18,-24,-6,21,-6,-15,-8,-27,-51,-65,-24,-21
434,-18,-23,-5,20,-6,-14,-9,-26,-52,-66,-25,-21
435,-18,-23,-5,20,-6,-14,-9,-26,-52,-65,-26,-21
436,-18,-22,-4,20,-7,-13,-8,-27,-51,-65,-26,-21
437,-18,-22,-4,20,-7,-13,-9,-27,-51,-66,-27,-21
438,-17,-21,-4,19,-6,-12,-8,-26,-52,-65,-27,-20
439,-16,-21,-5,18,-5,-13,-8,-26,-52,-65,-28,-20
440,-16,-20,-4,18,-6,-12,-9,-25,-51,-66,-27,-20
441,-15,-21,-6,18,-4,-13,-9,-25,-51,-65,-27,-19
442,-16,-20,-4,18,-6,-12,-8,-24,-50,-65,-27,-19
443,-15,-20,-5,17,-5,-12,-8,-24,-49,-64,-26,-18
444,-15,-19,-4,17,-5,-11,-7,-24,-49,-64,-26,-18
445,-14,-20,-6,17,-4,-13,-6,-23,-48,-63,-25,-17
446,-15,-20,-5,17,-5,-12,-6,-23,-48,-63,-26,-18
447,-16,-20,-4,18,-6,-12,-5,-23,-48,-63,-25,-18
448,-15,-20,-5,17,-5,-12,-5,-22,-48,-62,-25,-19
449,-14,-19,-5,16,-4,-12,-5,-22,-47,-62,-24,-19
450,-14,-19,-5,16,-4,-12,-5,-21,-47,-61,-24,-18
451,-13,-20,-7,16,-3,-13,-5,-21,-46,-62,-24,-18
452,-13,-19,-6,16,-3,-12,-6,-20,-46,-61,-23,-19
453,-13,-18,-5,15,-4,-11,-6,-20,-46,-61,-22,-18
454,-12,-16,-4,14,-4,-10,-7,-21,-45,-59,-21,-17
455,-11,-13,-2,12,-4,-7,-7,-20,-44,-59,-19,-15
456,-10,-11,-1,10,-4,-6,-8,-20,-42,-57,-18,-15
457,-10,-8,2,9,-6,-3,-8,-21,-41,-57,-17,-14
458,-10,-5,5,7,-7,0,-9,-20,-40,-56,-15,-14
459,-10,-2,8,6,-9,3,-9,-20,-40,-54,-14,-13
460,-9,2,11,3,-10,6,-10,-21,-39,-53,-13,-12
461,-9,3,12,3,-10,7,-9,-20,-37,-51,-11,-10
462,-10,4,14,3,-12,9,-9,-20,-36,-50,-10,-10
463,-9,5,14,2,-11,9,-10,-19,-36,-50,-9,-9
464,-9,6,15,1,-12,10,-10,-20,-35,-49,-9,-9
465,-7,8,15,0,-11,11,-11,-20,-35,-49,-8,-9
466,-7,8,15,0,-11,11,-12,-19,-35,-49,-7,-8
467,-6,6,12,0,-9,9,-13,-20,-35,-48,-7,-8
468,-6,6,12,0,-9,9,-15,-20,-36,-48,-6,-7
469,-4,5,9,0,-6,7,-16,-22,-36,-49,-6,-7
470,-4,6,10,-1,-7,8,-17,-22,-38,-49,-5,-7
471,-3,5,8,-1,-5,6,-19,-23,-38,-50,-6,-7
472,-3,4,7,0,-5,5,-19,-25,-39,-49,-6,-6
473,-2,3,5,0,-3,4,-20,-25,-38,-49,-5,-6
474,-2,3,5,0,-3,4,-20,-26,-39,-48,-5,-6
475,-2,3,5,0,-3,4,-20,-26,-38,-48,-4,-5
476,-1,3,4,-1,-2,3,-19,-25,-38,-48,-4,-5
477,-1,2,3,0,-2,2,-19,-25,-37,-47,-4,-5
478,-1,2,3,0,-2,2,-18,-24,-37,-47,-3,-4
479,-1,2,3,0,-2,2,-18,-24,-36,-46,-3,-4
480,-1,1,2,0,-1,1,-17,-23,-35,-46,-2,-3
481,0,0,0,0,0,0,-17,-23,-36,-46,-2,-3
482,1,-1,-2,0,1,-1,-16,-22,-35,-46,-3,-4
483,0,-3,-3,1,1,-3,-17,-21,-36,-47,-3,-4
484,0,-4,-4,2,2,-4,-16,-21,-36,-47,-4,-5
485,0,-5,-5,2,2,-5,-16,-20,-37,-48,-3,-4
486,0,-6,-6,3,3,-6,-15,-20,-36,-48,-4,-5
487,0,-6,-6,3,3,-6,-15,-20,-37,-49,-4,-5
488,-1,-7,-6,4,2,-6,-14,-19,-37,-49,-5,-6
489,-1,-8,-7,4,3,-7,-13,-19,-38,-48,-4,-5
490,-1,-7,-6,4,2,-6,-13,-19,-37,-48,-5,-5
491,-2,-7,-5,4,1,-6,-12,-18,-37,-49,-5,-6
492,-3,-7,-4,5,0,-5,-11,-18,-36,-48,-6,-5
493,-3,-7,-4,5,0,-5,-9,-17,-36,-48,-6,-6
494,-4,-7,-3,5,0,-5,-8,-16,-35,-49,-6,-6
495,-6,-8,-2,7,-2,-5,-8,-16,-35,-49,-8,-7
496,-7,-8,-1,7,-3,-4,-7,-16,-35,-50,-8,-7
497,-9,-9,0,9,-4,-4,-6,-16,-36,-50,-10,-9
498,-11,-10,1,10,-6,-4,-6,-17,-36,-52,-11,-10
499,-12,-11,1,11,-6,-5,-5,-17,-38,-53,-14,-12
500,-13,-12,1,12,-7,-5,-5,-17,-39,-55,-16,-13
501,-13,-14,-1,13,-6,-7,-6,-18,-41,-56,-17,-15
502,-15,-15,0,15,-7,-7,-6,-20,-42,-58,-19,-17
503,-16,-17,-1,16,-7,-9,-7,-21,-44,-59,-22,-18
504,-17,-19,-2,18,-7,-10,-7,-22,-46,-61,-23,-20
505,-16,-20,-4,18,-6,-12,-6,-23,-47,-62,-25,-20
506,-17,-23,-6,20,-5,-14,-6,-22,-48,-62,-25,-21
507,-17,-24,-7,20,-5,-15,-7,-22,-48,-63,-27,-21
508,-18,-26,-8,22,-5,-17,-7,-23,-49,-62,-27,-20
509,-18,-27,-9,22,-4,-18,-6,-23,-49,-63,-28,-21
510,-18,-27,-9,22,-4,-18,-6,-22,-48,-62,-27,-21
511,-18,-27,-9,22,-4,-18,-5,-22,-48,-62,-28,-20
512,-17,-26,-9,21,-4,-17,-5,-21,-46,-61,-27,-20
513,-17,-26,-9,21,-4,-17,-5,-20,-46,-60,-27,-19
514,-18,-24,-6,21,-6,-15,-4,-21,-45,-61,-28,-19
515,-18,-23,-5,20,-6,-14,-4,-21,-45,-61,-28,-20
516,-18,-21,-3,19,-7,-12,-5,-20,-45,-61,-29,-20
517,-17,-20,-3,18,-7,-11,-5,-21,-44,-61,-29,-21
518,-16,-19,-3,17,-6,-11,-6,-21,-44,-60,-29,-20
519,-17,-19,-2,18,-7,-10,-6,-21,-44,-61,-30,-21
520,-18,-19,-1,18,-8,-10,-6,-21,-44,-61,-30,-21
521,-17,-18,-1,17,-8,-9,-7,-21,-44,-62,-32,-22
522,-17,-17,0,17,-8,-8,-6,-21,-44,-62,-32,-21
523,-17,-18,-1,17,-8,-9,-7,-21,-44,-62,-33,-21
524,-17,-18,-1,17,-8,-9,-7,-21,-44,-62,-33,-20
525,-17,-18,-1,17,-8,-9,-8,-23,-45,-62,-34,-20
526,-16,-18,-2,17,-7,-10,-10,-24,-47,-62,-34,-19
527,-16,-18,-2,17,-7,-10,-11,-25,-48,-62,-34,-18
528,-17,-18,-1,17,-8,-9,-12,-27,-50,-63,-34,-17
529,-17,-19,-2,18,-7,-10,-13,-28,-50,-63,-34,-16
530,-18,-20,-2,19,-8,-11,-12,-28,-51,-63,-35,-17
531,-19,-22,-3,20,-8,-12,-11,-27,-49,-63,-37,-18
532,-20,-25,-5,22,-7,-15,-6,-22,-46,-62,-40,-21
533,-23,-28,-5,25,-9,-16,1,-13,-38,-61,-44,-26
534,-26,-31,-5,28,-10,-18,11,0,-26,-59,-49,-33
535,-29,-34,-5,31,-12,-19,25,16,-10,-55,-54,-40
536,-33,-36,-3,34,-15,-19,40,36,12,-47,-58,-46
537,-34,-37,-3,35,-15,-20,56,60,38,-37,-59,-51
538,-33,-35,-2,34,-15,-18,73,87,68,-21,-55,-53
539,-30,-31,-1,30,-14,-16,89,117,104,0,-47,-50
540,-22,-20,2,21,-12,-9,103,147,145,29,-29,-39
541,-10,1,11,4,-10,6,109,172,186,66,0,-18
542,7,32,25,-19,-9,28,104,187,221,109,41,16
543,30,73,43,-51,-6,58,90,192,249,156,92,59
544,56,121,65,-88,-4,93,69,186,267,205,151,111
545,83,179,96,-131,-6,137,37,167,275,255,216,170
546,112,247,135,-179,-11,191,-6,130,267,302,284,236
547,138,319,181,-228,-21,250,-58,76,239,341,351,303
548,161,386,225,-273,-32,305,-116,6,191,367,407,363
549,176,439,263,-307,-43,351,-174,-72,128,379,447,410
550,183,475,292,-329,-54,383,-225,-148,59,376,467,439
551,184,492,308,-338,-62,400,-270,-220,-12,358,467,450
552,178,492,314,-335,-68,403,-309,-288,-86,323,446,443
553,165,471,306,-318,-70,388,-339,-348,-161,272,403,417
554,144,428,284,-286,-70,356,-355,-391,-229,210,340,371
555,119,369,250,-244,-65,309,-355,-414,-281,142,265,310
556,93,303,210,-198,-58,256,-345,-421,-321,70,183,243
557,69,238,169,-153,-50,203,-329,-416,-352,-3,101,177
558,46,178,132,-112,-43,155,-308,-401,-373,-74,25,116
559,25,124,99,-74,-37,111,-282,-377,-383,-135,-42,61
560,7,79,72,-43,-32,75,-250,-343,-379,-180,-93,15
561,-7,44,51,-18,-29,47,-216,-303,-360,-209,-129,-19
562,-16,20,36,-2,-26,28,-185,-262,-334,-224,-151,-41
563,-19,7,26,6,-22,16,-158,-223,-304,-227,-160,-52
564,-21,0,21,10,-21,10,-133,-185,-268,-217,-157,-56
565,-21,-5,16,13,-18,5,-109,-146,-224,-194,-146,-55
566,-19,-8,11,13,-15,1,-87,-110,-177,-163,-130,-50
567,-17,-10,7,13,-12,-1,-68,-79,-133,-131,-112,-45
568,-14,-9,5,11,-9,-2,-53,-54,-96,-103,-97,-39
569,-12,-8,4,10,-8,-2,-41,-34,-65,-79,-85,-34
570,-11,-9,2,10,-6,-3,-29,-18,-39,-59,-75,-30
571,-12,-10,2,11,-7,-4,-18,-5,-19,-43,-67,-26
572,-12,-12,0,12,-6,-6,-8,6,-4,-32,-62,-24
573,-12,-14,-2,13,-5,-8,0,13,6,-26,-59,-23
574,-13,-15,-2,14,-5,-8,6,17,11,-24,-59,-23
575,-14,-16,-2,15,-6,-9,10,20,14,-23,-60,-23
576,-14,-17,-3,15,-5,-10,14,23,15,-24,-61,-23
577,-15,-21,-6,18,-4,-13,18,26,17,-24,-62,-23
578,-14,-24,-10,19,-2,-17,20,29,19,-23,-62,-24
579,-15,-27,-12,21,-1,-19,22,30,21,-24,-64,-25
580,-15,-28,-13,21,-1,-20,23,31,22,-24,-65,-25
581,-14,-29,-15,21,0,-22,24,32,23,-24,-66,-26
582,-14,-30,-16,22,1,-23,25,33,25,-24,-67,-26
583,-15,-32,-17,23,1,-24,26,35,27,-22,-66,-25
584,-15,-32,-17,23,1,-24,26,36,29,-21,-67,-25
585,-14,-31,-17,22,1,-24,27,37,30,-21,-67,-26
586,-14,-31,-17,22,1,-24,27,39,31,-19,-68,-26
587,-14,-30,-16,22,1,-23,27,40,33,-18,-67,-25
588,-14,-30,-16,22,1,-23,28,40,35,-17,-67,-25
589,-13,-31,-18,22,2,-24,28,42,36,-15,-68,-24
590,-12,-31,-19,21,3,-25,29,43,38,-14,-68,-23
591,-12,-31,-19,21,3,-25,29,44,39,-13,-67,-23
592,-11,-30,-19,20,4,-24,29,45,40,-12,-67,-22
593,-11,-31,-20,21,4,-25,30,45,42,-11,-67,-22
594,-10,-30,-20,20,5,-25,30,47,43,-9,-66,-21
595,-10,-30,-20,20,5,-25,31,47,44,-8,-66,-20
596,-10,-29,-19,19,4,-24,30,48,45,-8,-66,-21
597,-10,-29,-19,19,4,-24,31,48,45,-7,-67,-21
598,-10,-28,-18,19,4,-23,31,49,46,-7,-67,-20
599,-9,-26,-17,17,4,-21,32,50,48,-6,-66,-20
600,-9,-26,-17,17,4,-21,31,50,48,-4,-67,-19
601,-9,-26,-17,17,4,-21,31,51,49,-3,-67,-20
602,-10,-26,-16,18,3,-21,32,51,51,-3,-68,-20
603,-10,-26,-16,18,3,-21,32,52,52,-2,-68,-19
604,-9,-25,-16,17,3,-20,33,54,54,0,-68,-19
605,-9,-26,-17,17,4,-21,33,55,56,1,-67,-18
606,-8,-26,-18,17,5,-22,32,55,57,1,-68,-17
607,-7,-25,-18,16,5,-21,32,56,58,2,-68,-17
608,-7,-25,-18,16,5,-21,33,56,60,4,-67,-16
609,-6,-24,-18,15,6,-21,33,58,61,4,-67,-16
610,-6,-23,-17,14,5,-20,33,59,63,5,-66,-16
611,-6,-23,-17,14,5,-20,34,59,65,7,-67,-15
612,-6,-23,-17,14,5,-20,34,60,66,8,-66,-14
613,-6,-22,-16,14,5,-19,35,61,68,10,-66,-14
614,-6,-22,-16,14,5,-19,35,63,69,11,-65,-13
615,-5,-21,-16,13,5,-18,35,64,72,12,-65,-12
616,-5,-21,-16,13,5,-18,36,64,73,14,-65,-12
617,-5,-21,-16,13,5,-18,35,66,74,16,-64,-11
618,-4,-19,-15,11,5,-17,36,67,76,16,-64,-10
619,-4,-17,-13,10,4,-15,36,67,78,18,-64,-10
620,-2,-16,-14,9,6,-15,37,68,79,19,-64,-9
621,-2,-14,-12,8,5,-13,36,70,81,21,-63,-9
622,-1,-13,-12,7,5,-12,36,71,82,22,-63,-9
623,-1,-13,-12,7,5,-12,37,71,83,23,-62,-8
624,-1,-12,-11,6,5,-11,36,72,85,25,-62,-7
625,-1,-13,-12,7,5,-12,37,74,86,26,-62,-7
626,-1,-14,-13,7,6,-13,37,74,88,28,-61,-6
627,-1,-15,-14,8,6,-14,38,75,91,29,-61,-6
628,-2,-17,-15,9,6,-16,37,77,93,32,-60,-5
629,-2,-18,-16,10,7,-17,38,78,95,33,-59,-4
630,-2,-18,-16,10,7,-17,38,80,96,35,-59,-4
631,0,-18,-18,9,9,-18,39,81,98,36,-58,-3
632,1,-17,-18,8,9,-17,38,82,100,38,-57,-2
633,1,-15,-16,7,8,-15,38,84,103,41,-57,-2
634,2,-14,-16,6,9,-15,37,85,105,43,-56,-1
635,4,-11,-15,3,9,-13,37,87,106,44,-56,-1
636,5,-9,-14,2,9,-11,38,89,109,46,-55,0
637,7,-6,-13,0,10,-9,38,90,111,47,-55,0
638,8,-4,-12,-2,10,-8,38,92,114,50,-54,1
639,9,-3,-12,-3,10,-7,38,93,116,51,-52,3
640,9,-2,-11,-3,10,-6,38,95,118,54,-52,4
641,10,-1,-11,-4,10,-6,39,97,121,56,-51,4
642,11,1,-10,-6,10,-4,38,98,124,59,-49,5
643,11,2,-9,-6,10,-3,37,100,126,60,-49,6
644,10,2,-8,-6,9,-3,38,103,129,63,-48,7
645,11,2,-9,-6,10,-3,39,105,131,66,-46,9
646,12,2,-10,-7,11,-4,39,106,135,68,-45,10
647,12,2,-10,-7,11,-4,40,108,138,71,-43,11
648,13,3,-10,-8,11,-3,40,111,140,73,-42,13
649,14,4,-10,-9,12,-3,40,113,144,76,-41,14
650,15,4,-11,-9,13,-3,41,116,147,79,-38,16
651,16,5,-11,-10,13,-3,41,118,151,81,-37,18
652,17,7,-10,-12,13,-1,42,121,154,85,-35,19
653,18,8,-10,-13,14,-1,42,122,157,88,-34,21
654,19,10,-9,-14,14,0,41,124,161,90,-32,22
655,21,12,-9,-16,15,1,41,125,164,94,-31,23
656,23,14,-9,-18,16,2,41,128,166,97,-29,25
657,24,15,-9,-19,16,3,41,130,170,99,-26,26
658,24,17,-7,-20,15,5,41,131,172,102,-25,28
659,25,20,-5,-22,15,7,40,133,175,104,-23,29
660,26,23,-3,-24,14,10,40,134,176,107,-22,30
661,27,25,-2,-26,14,11,39,136,179,109,-19,32
662,28,28,0,-28,14,14,39,137,181,111,-17,33
663,28,30,2,-29,13,16,40,139,182,114,-16,36
664,29,31,2,-30,13,16,39,140,185,117,-14,37
665,30,33,3,-31,13,18,39,141,187,119,-11,40
666,32,36,4,-34,14,20,37,141,188,122,-10,42
667,33,37,4,-35,14,20,37,143,191,125,-8,45
668,35,38,3,-36,16,20,36,144,196,127,-5,47
669,36,40,4,-38,16,22,36,144,202,130,-3,50
670,37,42,5,-39,16,23,34,144,207,132,-2,52
671,39,45,6,-42,16,25,33,144,212,134,0,53
672,40,47,7,-43,16,27,31,143,218,135,1,56
673,42,50,8,-46,17,29,30,143,223,137,3,58
674,43,52,9,-47,17,30,27,142,228,138,4,59
675,44,54,10,-49,17,32,26,141,233,139,4,61
676,45,57,12,-51,16,34,24,139,236,139,5,62
677,45,59,14,-52,15,36,23,138,238,140,7,64
678,46,60,14,-53,16,37,21,136,239,140,8,65
679,45,61,16,-53,14,38,19,135,239,141,8,67
680,46,62,16,-54,15,39,18,133,240,141,9,68
681,47,63,16,-55,15,39,16,132,239,141,10,70
682,47,64,17,-55,15,40,16,130,237,142,11,71
683,47,65,18,-56,14,41,14,128,236,141,12,72
684,48,66,18,-57,15,42,13,126,233,141,12,74
685,48,68,20,-58,14,44,11,124,230,140,12,75
686,49,69,20,-59,14,44,10,121,228,140,13,77
687,50,71,21,-60,14,46,8,119,225,139,13,77
688,50,72,22,-61,14,47,7,116,220,138,12,78
689,50,73,23,-61,13,48,5,112,216,136,12,78
690,51,73,22,-62,14,47,4,109,212,135,10,79
691,51,74,23,-62,14,48,2,105,207,133,10,80
692,51,74,23,-62,14,48,1,103,203,131,9,80
693,51,74,23,-62,14,48,-1,99,198,129,8,81
694,50,73,23,-61,13,48,-2,96,193,126,7,81
695,50,73,23,-61,13,48,-4,92,187,124,5,81
696,50,72,22,-61,14,47,-5,87,182,121,4,80
697,49,71,22,-60,13,46,-7,83,176,117,3,80
698,48,69,21,-58,13,45,-9,78,169,114,1,79
699,47,68,21,-57,13,44,-10,73,163,110,-2,77
700,46,66,20,-56,13,43,-12,69,155,106,-4,76
701,45,65,20,-55,12,42,-13,63,148,101,-7,74
702,43,63,20,-53,11,41,-15,57,142,97,-11,72
703,41,62,21,-51,10,41,-15,53,135,91,-14,70
704,40,59,19,-49,10,39,-17,48,127,86,-18,67
705,38,57,19,-47,9,38,-18,43,121,80,-22,65
706,36,56,20,-46,8,38,-18,39,114,75,-27,63
707,34,53,19,-43,7,36,-19,34,106,69,-32,59
708,31,51,20,-41,5,35,-19,30,99,63,-36,57
709,29,48,19,-38,5,33,-20,26,92,57,-41,54
710,28,45,17,-36,5,31,-20,23,85,51,-46,51
711,25,41,16,-33,4,28,-19,19,79,45,-51,48
712,23,38,15,-30,4,26,-19,16,72,39,-57,44
713,20,33,13,-26,3,23,-18,12,66,34,-62,41
714,18,29,11,-23,3,20,-18,9,60,28,-66,37
715,15,26,11,-20,2,18,-17,6,54,22,-71,35
716,13,23,10,-18,1,16,-17,4,49,17,-77,31
717,12,21,9,-16,1,15,-16,1,44,11,-82,27
718,10,18,8,-14,1,13,-16,-1,38,6,-88,23
719,7,15,8,-11,0,11,-15,-3,33,2,-92,20
720,5,13,8,-9,-1,10,-14,-4,29,-3,-97,16
721,4,10,6,-7,-1,8,-13,-6,24,-9,-101,13
722,2,7,5,-4,-1,6,-11,-7,20,-13,-106,9
723,1,5,4,-3,-1,4,-11,-9,16,-18,-110,7
724,-1,2,3,0,-2,2,-10,-10,13,-22,-115,4
725,-3,-1,2,2,-2,0,-10,-10,9,-26,-119,0
726,-4,-4,0,4,-2,-2,-9,-12,6,-29,-122,-2
727,-6,-7,-1,6,-2,-4,-7,-13,3,-33,-126,-4
728,-8,-10,-2,9,-3,-6,-7,-13,1,-36,-129,-7
729,-9,-12,-3,10,-3,-7,-6,-14,-2,-39,-133,-9
730,-11,-14,-3,12,-4,-8,-4,-14,-3,-42,-136,-12
731,-13,-16,-3,14,-5,-9,-4,-15,-5,-44,-139,-13
732,-14,-18,-4,16,-5,-11,-2,-16,-7,-47,-141,-15
733,-15,-21,-6,18,-4,-13,-1,-15,-8,-48,-144,-16
734,-15,-22,-7,18,-4,-14,-1,-15,-9,-50,-145,-17
735,-17,-22,-5,19,-6,-13,1,-16,-10,-51,-148,-18
736,-17,-24,-7,20,-5,-15,2,-16,-11,-53,-149,-20
737,-18,-25,-7,21,-5,-16,2,-16,-12,-54,-151,-21
738,-17,-26,-9,21,-4,-17,3,-15,-12,-55,-151,-21
739,-18,-26,-8,22,-5,-17,3,-16,-13,-55,-153,-22
740,-18,-27,-9,22,-4,-18,4,-15,-14,-56,-154,-23
741,-17,-28,-11,22,-3,-19,5,-15,-14,-56,-154,-24
742,-18,-28,-10,23,-4,-19,5,-15,-14,-56,-156,-24
743,-18,-29,-11,23,-3,-20,6,-14,-15,-58,-157,-25
744,-19,-29,-10,24,-4,-19,6,-14,-15,-58,-158,-25
745,-19,-29,-10,24,-4,-19,7,-13,-16,-57,-158,-26
746,-20,-29,-9,24,-5,-19,7,-14,-16,-58,-159,-26
747,-21,-30,-9,25,-6,-19,8,-13,-15,-58,-160,-26
748,-21,-29,-8,25,-6,-18,8,-13,-15,-59,-161,-27
749,-21,-29,-8,25,-6,-18,9,-13,-16,-59,-162,-28
750,-21,-30,-9,25,-6,-19,10,-12,-16,-58,-162,-27
751,-20,-30,-10,25,-5,-20,10,-12,-16,-58,-162,-27
752,-20,-31,-11,25,-4,-21,11,-11,-15,-57,-162,-26
753,-20,-32,-12,26,-4,-22,12,-10,-15,-56,-162,-27
754,-20,-33,-13,26,-3,-23,12,-10,-15,-56,-163,-27
755,-20,-34,-14,27,-3,-24,13,-9,-14,-55,-163,-26
756,-20,-34,-14,27,-3,-24,12,-8,-14,-54,-162,-27
757,-20,-34,-14,27,-3,-24,12,-8,-13,-54,-163,-27
758,-21,-34,-13,27,-4,-23,13,-7,-13,-53,-163,-26
759,-22,-33,-11,27,-5,-22,12,-7,-14,-54,-162,-26
760,-23,-32,-9,27,-7,-20,12,-8,-13,-54,-163,-27
761,-23,-31,-8,27,-7,-19,11,-8,-13,-53,-163,-27
762,-22,-30,-8,26,-7,-19,11,-7,-14,-53,-163,-27
763,-22,-30,-8,26,-7,-19,10,-8,-13,-52,-163,-26
764,-21,-29,-8,25,-6,-18,10,-8,-13,-52,-162,-27
765,-21,-29,-8,25,-6,-18,9,-7,-14,-51,-162,-26
766,-20,-30,-10,25,-5,-20,9,-7,-13,-52,-163,-26
767,-19,-30,-11,24,-4,-20,8,-6,-13,-51,-163,-25
768,-18,-32,-14,25,-2,-23,8,-6,-12,-50,-162,-25
769,-18,-33,-15,25,-1,-24,9,-5,-12,-50,-162,-24
770,-19,-33,-14,26,-2,-23,9,-5,-12,-49,-162,-23
771,-19,-34,-15,26,-2,-24,10,-6,-13,-50,-163,-24
772,-20,-34,-14,27,-3,-24,10,-5,-13,-50,-163,-23
773,-19,-34,-15,26,-2,-24,9,-5,-12,-49,-162,-23
774,-19,-34,-15,26,-2,-24,9,-6,-12,-49,-163,-22
775,-20,-34,-14,27,-3,-24,10,-6,-13,-48,-163,-22
776,-20,-33,-13,26,-3,-23,10,-6,-13,-49,-164,-23
777,-20,-32,-12,26,-4,-22,10,-7,-15,-49,-164,-23
778,-20,-30,-10,25,-5,-20,9,-7,-15,-49,-165,-24
779,-19,-29,-10,24,-4,-19,8,-8,-16,-48,-165,-23
780,-18,-28,-10,23,-4,-19,8,-8,-16,-49,-166,-24
781,-17,-27,-10,22,-3,-18,7,-8,-17,-49,-166,-24
782,-17,-26,-9,21,-4,-17,6,-9,-18,-50,-165,-25
783,-17,-26,-9,21,-4,-17,6,-9,-18,-49,-166,-25
784,-16,-26,-10,21,-3,-18,5,-10,-18,-49,-166,-24
785,-16,-26,-10,21,-3,-18,5,-10,-19,-50,-165,-24
786,-16,-27,-11,21,-2,-19,6,-9,-19,-49,-166,-23
787,-16,-28,-12,22,-2,-20,6,-9,-20,-49,-166,-23
788,-17,-29,-12,23,-2,-20,5,-10,-21,-50,-165,-24
789,-17,-29,-12,23,-2,-20,6,-10,-22,-50,-166,-23
790,-16,-30,-14,23,-1,-22,6,-11,-22,-51,-166,-23
791,-16,-29,-13,22,-1,-21,5,-11,-23,-51,-167,-22
792,-17,-29,-12,23,-2,-20,5,-12,-24,-52,-167,-22
793,-17,-28,-11,22,-3,-19,4,-12,-25,-53,-168,-23
794,-16,-29,-13,22,-1,-21,4,-14,-27,-54,-168,-22
795,-17,-28,-11,22,-3,-19,4,-14,-28,-54,-169,-22
796,-17,-28,-11,22,-3,-19,3,-15,-29,-55,-169,-23
797,-17,-29,-12,23,-2,-20,4,-15,-30,-55,-169,-23
798,-16,-29,-13,22,-1,-21,4,-16,-30,-55,-170,-22
799,-16,-30,-14,23,-1,-22,3,-16,-32,-56,-170,-22
800,-17,-31,-14,24,-1,-22,4,-16,-32,-56,-169,-21
801,-17,-32,-15,24,-1,-23,4,-17,-33,-56,-170,-21
802,-18,-32,-14,25,-2,-23,4,-17,-33,-57,-170,-20
803,-18,-32,-14,25,-2,-23,4,-18,-35,-57,-171,-21
804,-17,-32,-15,24,-1,-23,3,-18,-36,-58,-171,-21
805,-18,-33,-15,25,-1,-24,4,-18,-36,-59,-173,-22
806,-18,-33,-15,25,-1,-24,3,-19,-38,-59,-174,-22
807,-18,-32,-14,25,-2,-23,3,-19,-39,-60,-174,-22
808,-18,-32,-14,25,-2,-23,2,-19,-39,-61,-175,-23
809,-17,-31,-14,24,-1,-22,3,-20,-41,-61,-176,-24
810,-18,-30,-12,24,-3,-21,3,-20,-41,-62,-176,-24
811,-18,-31,-13,24,-2,-22,2,-21,-42,-62,-177,-24
812,-17,-31,-14,24,-1,-22,3,-20,-42,-61,-177,-24
813,-17,-30,-13,23,-2,-21,3,-21,-43,-61,-176,-24
814,-16,-31,-15,23,0,-23,3,-21,-43,-62,-176,-24
815,-16,-31,-15,23,0,-23,3,-22,-44,-62,-177,-24
816,-16,-32,-16,24,0,-24,2,-22,-44,-63,-177,-23
817,-17,-33,-16,25,0,-24,2,-21,-46,-63,-178,-23
818,-17,-33,-16,25,0,-24,3,-21,-46,-64,-178,-24
819,-18,-33,-15,25,-1,-24,2,-22,-47,-65,-178,-24
820,-18,-34,-16,26,-1,-25,2,-22,-48,-65,-179,-25
821,-18,-35,-17,26,0,-26,1,-23,-49,-66,-179,-24
822,-18,-36,-18,27,0,-27,2,-23,-49,-65,-180,-25
823,-17,-36,-19,26,1,-27,2,-24,-50,-65,-180,-25
824,-17,-35,-18,26,0,-26,1,-24,-50,-66,-181,-26
825,-17,-35,-18,26,0,-26,1,-24,-51,-66,-181,-25
826,-17,-36,-19,26,1,-27,1,-23,-50,-66,-181,-26
827,-17,-36,-19,26,1,-27,1,-23,-51,-65,-182,-25
828,-17,-37,-20,27,1,-28,1,-24,-51,-66,-182,-25
829,-17,-36,-19,26,1,-27,1,-23,-52,-66,-181,-24
830,-17,-36,-19,26,1,-27,1,-23,-51,-65,-181,-25
831,-18,-36,-18,27,0,-27,0,-24,-52,-65,-182,-24
832,-18,-36,-18,27,0,-27,0,-24,-53,-66,-182,-25
833,-19,-37,-18,28,0,-27,1,-25,-53,-66,-183,-25
834,-19,-37,-18,28,0,-27,0,-25,-54,-67,-183,-25
835,-19,-36,-17,27,-1,-26,0,-24,-53,-67,-182,-25
836,-19,-36,-17,27,-1,-26,1,-24,-54,-66,-183,-24
837,-19,-36,-17,27,-1,-26,0,-25,-54,-66,-182,-25
838,-19,-37,-18,28,0,-27,0,-25,-55,-67,-183,-25
839,-19,-36,-17,27,-1,-26,1,-26,-55,-67,-183,-24
840,-18,-36,-18,27,0,-27,1,-25,-55,-66,-182,-24
841,-18,-35,-17,26,0,-26,2,-25,-54,-66,-182,-23
842,-17,-36,-19,26,1,-27,2,-25,-54,-66,-182,-23
843,-17,-35,-18,26,0,-26,3,-26,-55,-67,-182,-23
844,-18,-35,-17,26,0,-26,3,-26,-55,-67,-183,-24
845,-18,-34,-16,26,-1,-25,2,-26,-56,-67,-183,-24
846,-17,-34,-17,25,0,-25,3,-26,-56,-68,-183,-25
847,-18,-33,-15,25,-1,-24,3,-26,-57,-67,-184,-25
848,-19,-33,-14,26,-2,-23,3,-27,-57,-67,-184,-24
849,-19,-33,-14,26,-2,-23,3,-27,-58,-68,-185,-25
850,-19,-34,-15,26,-2,-24,2,-26,-58,-68,-184,-25
851,-19,-34,-15,26,-2,-24,3,-27,-58,-68,-185,-24
852,-19,-36,-17,27,-1,-26,3,-26,-57,-67,-185,-24
853,-20,-37,-17,28,-1,-27,2,-26,-57,-67,-184,-23
854,-19,-37,-18,28,0,-27,2,-27,-58,-67,-183,-23
855,-19,-38,-19,28,0,-28,1,-26,-57,-66,-182,-23
856,-18,-38,-20,28,1,-29,2,-26,-58,-66,-182,-22
857,-18,-38,-20,28,1,-29,2,-26,-58,-65,-182,-22
858,-19,-38,-19,28,0,-28,1,-26,-57,-66,-182,-22
859,-19,-37,-18,28,0,-27,1,-27,-58,-66,-183,-23
860,-18,-36,-18,27,0,-27,0,-26,-58,-65,-182,-23
861,-18,-35,-17,26,0,-26,0,-26,-59,-65,-183,-24
862,-18,-34,-16,26,-1,-25,1,-26,-58,-65,-184,-24
863,-18,-34,-16,26,-1,-25,0,-27,-59,-66,-185,-25
864,-18,-33,-15,25,-1,-24,0,-27,-59,-66,-184,-25
865,-18,-33,-15,25,-1,-24,0,-26,-60,-65,-184,-25
866,-18,-34,-16,26,-1,-25,0,-26,-60,-65,-185,-24
867,-18,-35,-17,26,0,-26,1,-25,-59,-65,-185,-24
868,-18,-35,-17,26,0,-26,1,-25,-59,-65,-184,-23
869,-18,-36,-18,27,0,-27,0,-26,-58,-65,-184,-23
870,-18,-38,-20,28,1,-29,0,-25,-58,-64,-183,-22
871,-18,-38,-20,28,1,-29,1,-25,-59,-64,-183,-22
872,-18,-38,-20,28,1,-29,1,-26,-59,-64,-183,-22
873,-18,-38,-20,28,1,-29,0,-25,-59,-64,-183,-21
874,-18,-38,-20,28,1,-29,0,-25,-58,-64,-183,-21
875,-18,-37,-19,27,0,-28,-1,-26,-58,-63,-183,-21
876,-18,-37,-19,27,0,-28,-1,-26,-59,-63,-183,-21
877,-19,-37,-18,28,0,-27,0,-26,-59,-64,-183,-22
878,-19,-37,-18,28,0,-27,-1,-25,-59,-64,-183,-21
879,-19,-36,-17,27,-1,-26,-1,-26,-59,-63,-183,-22
880,-19,-35,-16,27,-1,-25,0,-25,-60,-64,-184,-22
881,-19,-36,-17,27,-1,-26,-1,-25,-60,-64,-184,-23
882,-18,-35,-17,26,0,-26,0,-24,-59,-64,-183,-23
883,-18,-35,-17,26,0,-26,0,-25,-59,-63,-184,-23
884,-17,-34,-17,25,0,-25,-1,-25,-60,-63,-183,-22
885,-17,-34,-17,25,0,-25,-1,-24,-59,-62,-183,-22
886,-17,-34,-17,25,0,-25,0,-24,-59,-62,-182,-21
887,-16,-34,-18,25,1,-26,0,-25,-58,-62,-182,-21
888,-16,-35,-19,25,1,-27,0,-24,-59,-61,-181,-21
889,-16,-34,-18,25,1,-26,0,-24,-59,-61,-181,-20
890,-15,-34,-19,24,2,-26,1,-25,-58,-60,-181,-20
891,-14,-35,-21,24,3,-28,1,-25,-58,-60,-180,-20
892,-14,-35,-21,24,3,-28,0,-24,-58,-59,-180,-19
893,-14,-34,-20,24,3,-27,0,-25,-58,-60,-180,-20
894,-15,-35,-20,25,2,-27,1,-25,-59,-60,-181,-20
895,-15,-35,-20,25,2,-27,1,-25,-59,-60,-182,-21
896,-14,-34,-20,24,3,-27,0,-25,-59,-60,-182,-20
897,-14,-34,-20,24,3,-27,0,-24,-58,-60,-181,-20
898,-15,-34,-19,24,2,-26,1,-25,-58,-61,-182,-21
899,-16,-34,-18,25,1,-26,0,-25,-58,-60,-182,-21
900,-16,-34,-18,25,1,-26,0,-24,-59,-60,-181,-20
901,-15,-34,-19,24,2,-26,1,-24,-59,-59,-181,-20
902,-15,-34,-19,24,2,-26,1,-23,-58,-59,-180,-19
903,-16,-35,-19,25,1,-27,2,-23,-58,-59,-179,-19
904,-15,-35,-20,25,2,-27,1,-24,-57,-58,-179,-19
905,-16,-35,-19,25,1,-27,1,-23,-57,-58,-178,-18
906,-16,-35,-19,25,1,-27,2,-24,-58,-57,-178,-18
907,-15,-35,-20,25,2,-27,1,-24,-58,-58,-178,-17
908,-15,-35,-20,25,2,-27,1,-23,-58,-57,-178,-17
909,-14,-36,-22,25,4,-29,2,-24,-57,-57,-178,-17
910,-14,-34,-20,24,3,-27,1,-24,-57,-56,-178,-18
911,-14,-34,-20,24,3,-27,1,-23,-57,-56,-178,-18
912,-14,-33,-19,23,2,-26,0,-23,-57,-56,-179,-19
913,-14,-33,-19,23,2,-26,1,-24,-57,-55,-179,-19
914,-14,-34,-20,24,3,-27,1,-23,-57,-56,-179,-18
915,-14,-34,-20,24,3,-27,0,-23,-56,-55,-178,-19
916,-15,-35,-20,25,2,-27,0,-22,-56,-55,-178,-19
917,-15,-34,-19,24,2,-26,1,-23,-55,-54,-177,-18
918,-15,-35,-20,25,2,-27,0,-23,-55,-55,-177,-18
919,-15,-35,-20,25,2,-27,0,-22,-56,-54,-177,-17
920,-15,-35,-20,25,2,-27,1,-23,-56,-54,-176,-17
921,-14,-34,-20,24,3,-27,1,-23,-55,-53,-176,-16
922,-14,-34,-20,24,3,-27,2,-22,-55,-53,-175,-16
923,-14,-34,-20,24,3,-27,2,-22,-54,-53,-175,-15
924,-13,-32,-19,22,3,-25,2,-21,-55,-52,-175,-16
925,-12,-32,-20,22,4,-26,3,-21,-54,-52,-174,-15
926,-12,-32,-20,22,4,-26,3,-21,-54,-52,-174,-15
927,-12,-33,-21,22,4,-27,4,-20,-53,-51,-173,-14
928,-12,-33,-21,22,4,-27,6,-20,-53,-51,-173,-14
929,-12,-35,-23,23,5,-29,6,-19,-53,-50,-174,-14
930,-13,-35,-22,24,4,-28,7,-19,-52,-51,-174,-15
931,-13,-36,-23,24,5,-29,7,-18,-52,-50,-173,-15
932,-13,-36,-23,24,5,-29,7,-18,-51,-50,-173,-15
933,-13,-37,-24,25,5,-30,7,-17,-51,-49,-173,-14
934,-12,-35,-23,23,5,-29,6,-17,-51,-49,-172,-15
935,-12,-31,-19,21,3,-25,5,-18,-50,-49,-172,-14
936,-11,-29,-18,20,3,-23,5,-18,-50,-47,-170,-14
937,-11,-26,-15,18,2,-20,4,-17,-49,-46,-169,-12
938,-10,-22,-12,16,1,-17,4,-18,-49,-46,-169,-12
939,-8,-20,-12,14,2,-16,4,-18,-48,-44,-168,-11
940,-8,-17,-9,12,0,-13,4,-17,-46,-43,-166,-9
941,-7,-14,-7,10,0,-10,3,-17,-46,-41,-165,-8
942,-7,-12,-5,9,-1,-8,3,-16,-45,-40,-163,-7
943,-8,-11,-3,9,-2,-7,2,-16,-43,-39,-162,-6
944,-8,-11,-3,9,-2,-7,2,-15,-42,-39,-162,-5
945,-7,-12,-5,9,-1,-8,2,-15,-42,-38,-161,-5
946,-8,-12,-4,10,-2,-8,1,-14,-41,-38,-161,-4
947,-8,-11,-3,9,-2,-7,1,-15,-41,-37,-160,-5
948,-7,-11,-4,9,-1,-7,-1,-15,-41,-37,-161,-5
949,-7,-11,-4,9,-1,-7,-2,-16,-41,-37,-160,-4
950,-7,-12,-5,9,-1,-8,-4,-18,-42,-38,-160,-4
951,-6,-12,-6,9,0,-9,-5,-19,-42,-38,-159,-3
952,-5,-12,-7,8,1,-9,-7,-21,-43,-39,-159,-3
953,-4,-11,-7,7,1,-9,-9,-21,-43,-38,-159,-3
954,-3,-11,-8,7,2,-9,-10,-23,-44,-38,-158,-2
955,-3,-12,-9,7,3,-10,-11,-23,-44,-38,-158,-2
956,-2,-13,-11,7,4,-12,-12,-24,-45,-37,-157,0
957,-1,-14,-13,7,6,-13,-12,-24,-44,-37,-156,0
958,0,-15,-15,7,7,-15,-11,-23,-44,-36,-155,1
959,1,-15,-16,7,8,-15,-11,-23,-43,-34,-155,1
960,1,-16,-17,7,9,-16,-11,-21,-43,-34,-154,2
961,0,-18,-18,9,9,-18,-10,-21,-43,-34,-154,2
962,1,-18,-19,8,10,-18,-10,-20,-42,-33,-153,1
963,1,-19,-20,9,10,-19,-10,-20,-42,-33,-153,1
964,1,-21,-22,10,11,-21,-9,-20,-43,-33,-154,0
965,0,-22,-22,11,11,-22,-9,-19,-43,-33,-154,0
966,0,-22,-22,11,11,-22,-9,-19,-44,-34,-155,-1
967,-1,-23,-22,12,10,-22,-8,-18,-44,-34,-154,0
968,0,-22,-22,11,11,-22,-8,-18,-44,-35,-155,0
969,1,-22,-23,10,12,-22,-7,-18,-44,-35,-154,-1
970,1,-24,-25,11,13,-24,-6,-16,-43,-34,-154,0
971,1,-25,-26,12,13,-25,-5,-15,-43,-34,-152,0
972,1,-26,-27,12,14,-26,-3,-15,-42,-33,-152,1
973,1,-27,-28,13,14,-27,-3,-14,-42,-32,-151,1
974,1,-28,-29,13,15,-28,-2,-13,-40,-32,-151,2
975,0,-30,-30,15,15,-30,0,-11,-40,-31,-150,2
976,-1,-32,-31,16,15,-31,1,-11,-39,-31,-150,1
977,-3,-33,-30,18,13,-31,2,-11,-40,-32,-151,0
978,-6,-35,-29,20,11,-32,2,-11,-41,-33,-152,-1
979,-8,-35,-27,21,9,-31,2,-12,-42,-34,-154,-4
980,-10,-37,-27,23,8,-32,3,-12,-44,-36,-156,-5
981,-12,-38,-26,25,7,-32,3,-13,-45,-37,-157,-7
982,-13,-40,-27,26,7,-33,3,-15,-47,-39,-159,-10
983,-14,-40,-26,27,6,-33,3,-16,-49,-42,-161,-11
984,-15,-40,-25,27,5,-32,2,-17,-50,-44,-162,-13
985,-15,-42,-27,28,6,-34,3,-17,-52,-45,-164,-14
986,-16,-44,-28,30,6,-36,3,-18,-52,-46,-165,-14
987,-16,-45,-29,30,6,-37,4,-18,-54,-46,-165,-15
988,-15,-46,-31,30,8,-38,3,-19,-55,-47,-166,-15
989,-16,-46,-30,31,7,-38,3,-18,-54,-46,-165,-15
990,-15,-47,-32,31,8,-39,4,-18,-54,-46,-165,-14
991,-16,-49,-33,32,8,-41,4,-17,-53,-46,-165,-14
992,-16,-49,-33,32,8,-41,5,-17,-54,-45,-164,-13
993,-15,-49,-34,32,9,-41,5,-17,-53,-45,-164,-13
994,-15,-49,-34,32,9,-41,4,-16,-53,-44,-163,-13
995,-14,-48,-34,31,10,-41,4,-16,-52,-43,-162,-12
996,-14,-49,-35,31,10,-42,5,-15,-52,-43,-162,-12
997,-14,-49,-35,31,10,-42,4,-15,-51,-42,-161,-12
998,-13,-47,-34,30,10,-40,4,-16,-51,-42,-162,-12
999,-13,-46,-33,29,10,-39,4,-16,-50,-43,-162,-13
1000,-14,-45,-31,29,8,-38,5,-15,-51,-43,-162,-12
1001,-14,-45,-31,29,8,-38,4,-15,-51,-43,-162,-13
1002,-14,-46,-32,30,9,-39,4,-14,-50,-42,-161,-13
1003,-15,-46,-31,30,8,-38,3,-15,-50,-42,-161,-13
1004,-15,-46,-31,30,8,-38,3,-15,-50,-42,-160,-14
1005,-16,-46,-30,31,7,-38,4,-15,-50,-41,-161,-14
1006,-16,-46,-30,31,7,-38,3,-15,-50,-41,-160,-14
1007,-15,-48,-33,31,9,-40,3,-16,-51,-40,-159,-13
1008,-15,-48,-33,31,9,-40,1,-18,-52,-40,-158,-12
1009,-15,-47,-32,31,8,-39,0,-19,-53,-40,-158,-11
1010,-15,-47,-32,31,8,-39,-2,-21,-55,-40,-157,-10
1011,-15,-47,-32,31,8,-39,-2,-22,-56,-40,-156,-10
1012,-14,-47,-33,30,9,-40,-2,-22,-57,-40,-156,-10
1013,-15,-47,-32,31,8,-39,-2,-22,-56,-40,-157,-11
1014,-17,-49,-32,33,7,-40,2,-17,-52,-41,-159,-13
1015,-20,-52,-32,36,6,-42,9,-9,-45,-40,-163,-18
1016,-22,-55,-33,38,5,-44,20,4,-34,-39,-168,-24
1017,-25,-58,-33,41,4,-45,33,21,-18,-35,-172,-31
1018,-28,-60,-32,44,2,-46,48,42,3,-29,-175,-37
1019,-31,-61,-30,46,0,-45,65,66,29,-20,-176,-43
1020,-32,-60,-28,46,-2,-44,83,93,59,-5,-172,-45
1021,-28,-58,-30,43,1,-44,100,124,94,15,-164,-42
1022,-20,-49,-29,34,4,-39,114,156,134,42,-146,-33
1023,-8,-29,-21,18,6,-25,120,183,175,77,-117,-14
1024,10,1,-9,-5,9,-4,117,199,210,119,-76,19
1025,32,40,8,-36,12,24,104,205,238,166,-25,62
1026,59,87,28,-73,15,57,82,201,257,216,34,113
1027,88,144,56,-116,16,100,51,183,265,267,101,172
1028,117,212,95,-164,11,153,8,147,258,316,171,238
1029,146,284,138,-215,4,211,-44,92,233,358,240,306
1030,169,351,182,-260,-6,266,-103,21,188,389,300,368
1031,184,406,222,-295,-19,314,-160,-58,128,405,346,418
1032,192,443,251,-317,-29,347,-213,-137,61,407,371,450
1033,193,462,269,-327,-38,365,-259,-213,-9,392,375,464
1034,187,463,276,-325,-44,369,-300,-284,-83,361,359,460
1035,174,444,270,-309,-48,357,-331,-348,-159,314,320,437
1036,153,403,250,-278,-48,326,-349,-396,-227,253,260,393
1037,127,347,220,-237,-46,283,-352,-422,-281,185,186,334
1038,99,283,184,-191,-42,233,-344,-432,-324,112,104,267
1039,74,219,145,-146,-35,182,-329,-429,-357,36,21,200
1040,50,159,109,-104,-29,134,-309,-415,-381,-38,-57,137
1041,29,106,77,-67,-24,91,-283,-390,-393,-102,-124,80
1042,10,62,52,-36,-21,57,-251,-355,-390,-150,-178,33
1043,-5,26,31,-10,-18,28,-217,-313,-373,-182,-217,-4
1044,-14,1,15,6,-14,8,-184,-270,-347,-199,-240,-29
1045,-20,-16,4,18,-12,-6,-155,-228,-316,-204,-249,-42
1046,-21,-24,-3,22,-9,-13,-128,-187,-279,-195,-246,-46
1047,-20,-29,-9,24,-5,-19,-103,-146,-234,-172,-235,-46
1048,-17,-32,-15,24,-1,-23,-79,-107,-186,-140,-219,-42
1049,-15,-34,-19,24,2,-26,-59,-74,-141,-108,-201,-37
1050,-12,-35,-23,23,5,-29,-43,-48,-103,-80,-184,-31
1051,-9,-35,-26,22,8,-30,-31,-28,-71,-56,-170,-25
1052,-7,-35,-28,21,10,-31,-19,-10,-44,-36,-158,-20
1053,-6,-36,-30,21,12,-33,-8,4,-24,-20,-150,-18
1054,-5,-38,-33,21,14,-35,2,14,-9,-9,-145,-16
1055,-6,-40,-34,23,14,-37,10,21,1,-2,-141,-15
1056,-7,-43,-36,25,14,-39,16,26,6,0,-140,-15
1057,-7,-45,-38,26,15,-41,21,29,9,0,-140,-16
1058,-8,-47,-39,27,15,-43,25,32,11,-1,-140,-16
1059,-9,-49,-40,29,15,-44,28,35,12,-1,-141,-17
1060,-9,-51,-42,30,16,-46,30,37,13,-2,-142,-18
1061,-10,-53,-43,31,16,-48,32,38,14,-2,-142,-19
1062,-9,-53,-44,31,17,-48,33,39,15,-2,-142,-19
1063,-9,-54,-45,31,18,-49,34,41,17,-1,-142,-19
1064,-10,-54,-44,32,17,-49,34,42,18,-1,-142,-20
1065,-10,-53,-43,31,16,-48,35,43,20,0,-142,-20
1066,-9,-54,-45,31,18,-49,35,45,22,1,-140,-19
1067,-9,-54,-45,31,18,-49,37,46,24,2,-139,-19
1068,-9,-53,-44,31,17,-48,38,47,26,3,-139,-18
1069,-9,-53,-44,31,17,-48,38,49,27,4,-137,-18
1070,-9,-53,-44,31,17,-48,39,50,29,6,-136,-17
1071,-10,-54,-44,32,17,-49,39,51,30,6,-136,-18
1072,-9,-55,-46,32,18,-50,40,52,32,8,-134,-17
1073,-9,-55,-46,32,18,-50,41,54,33,9,-133,-16
1074,-9,-56,-47,32,19,-51,41,54,34,11,-131,-16
1075,-9,-55,-46,32,18,-50,42,55,36,12,-131,-15
1076,-8,-55,-47,31,19,-51,42,57,37,13,-129,-15
1077,-7,-54,-47,30,20,-50,43,57,39,15,-129,-15
1078,-7,-54,-47,30,20,-50,43,57,39,16,-128,-14
1079,-7,-52,-45,29,19,-48,42,58,40,16,-128,-15
1080,-6,-51,-45,28,19,-48,43,58,42,17,-127,-15
1081,-6,-50,-44,28,19,-47,42,59,42,18,-126,-14
1082,-6,-50,-44,28,19,-47,42,59,43,19,-126,-14
1083,-6,-50,-44,28,19,-47,43,60,45,21,-125,-14
1084,-5,-49,-44,27,19,-46,43,60,46,22,-123,-13
1085,-5,-50,-45,27,20,-47,44,61,48,23,-123,-13
1086,-6,-50,-44,28,19,-47,44,63,49,25,-121,-12
1087,-5,-49,-44,27,19,-46,44,64,51,28,-120,-11
1088,-4,-48,-44,26,20,-46,45,66,53,29,-118,-11
1089,-4,-48,-44,26,20,-46,45,66,54,30,-118,-10
1090,-3,-47,-44,25,20,-45,45,67,56,32,-117,-9
1091,-3,-46,-43,24,20,-44,46,67,57,33,-115,-9
1092,-3,-44,-41,23,19,-42,46,69,58,35,-115,-8
1093,-1,-43,-42,22,20,-42,45,70,60,36,-114,-8
1094,-1,-42,-41,21,20,-41,45,70,61,36,-112,-7
1095,-1,-42,-41,21,20,-41,46,71,63,38,-112,-7
1096,0,-41,-41,20,20,-41,46,71,64,39,-111,-7
1097,0,-42,-42,21,21,-42,46,72,65,39,-109,-6
1098,1,-41,-42,20,21,-41,47,74,67,41,-108,-6
1099,1,-41,-42,20,21,-41,47,75,68,42,-106,-5
1100,1,-42,-43,20,22,-42,47,75,71,44,-106,-4
1101,1,-41,-42,20,21,-41,48,76,72,44,-104,-4
1102,1,-41,-42,20,21,-41,48,78,74,46,-104,-3
1103,1,-40,-41,19,21,-40,49,79,75,48,-103,-3
1104,2,-40,-42,19,22,-41,48,81,77,49,-101,-2
1105,2,-40,-42,19,22,-41,49,82,78,51,-100,-2
1106,3,-39,-42,18,22,-40,49,83,80,52,-99,-1
1107,4,-37,-41,16,22,-39,48,83,81,53,-99,-2
1108,4,-36,-40,16,22,-38,48,84,83,55,-97,-1
1109,5,-35,-40,15,22,-37,48,85,85,56,-96,0
1110,6,-34,-40,14,23,-37,48,87,86,58,-94,0
1111,6,-33,-39,13,22,-36,48,88,88,60,-92,1
1112,7,-31,-38,12,22,-34,48,89,89,61,-90,1
1113,8,-30,-38,11,23,-34,48,90,92,63,-87,2
1114,8,-28,-36,10,22,-32,49,92,94,66,-85,4
1115,9,-28,-37,9,23,-32,49,93,97,67,-82,4
1116,10,-27,-37,8,23,-32,50,95,99,69,-79,5
1117,11,-27,-38,8,24,-32,51,98,102,72,-75,7
1118,12,-26,-38,7,25,-32,51,99,105,74,-73,7
1119,12,-27,-39,7,25,-33,51,101,107,75,-71,8
1120,12,-27,-39,7,25,-33,52,104,110,78,-68,10
1121,13,-26,-39,6,26,-32,52,105,112,80,-66,11
1122,14,-25,-39,5,26,-32,53,108,115,81,-64,11
1123,14,-23,-37,4,25,-30,52,110,117,84,-62,12
1124,15,-21,-36,3,25,-28,52,111,120,86,-61,14
1125,15,-20,-35,2,25,-27,51,113,123,87,-58,15
1126,16,-18,-34,1,25,-26,52,115,125,89,-57,15
1127,17,-16,-33,0,25,-24,52,118,128,92,-55,16
1128,19,-14,-33,-2,26,-23,51,120,130,94,-54,18
1129,20,-12,-32,-4,26,-22,51,121,133,96,-52,18
1130,20,-12,-32,-4,26,-22,52,123,137,98,-51,19
1131,22,-12,-34,-5,28,-23,52,125,140,102,-49,21
1132,23,-10,-33,-6,28,-21,53,127,142,104,-46,22
1133,23,-9,-32,-7,27,-20,53,130,145,107,-45,24
1134,24,-8,-32,-8,28,-20,53,132,149,109,-42,24
1135,24,-7,-31,-8,27,-19,54,135,152,113,-40,25
1136,25,-6,-31,-9,28,-18,54,136,156,116,-37,27
1137,27,-4,-31,-11,29,-17,53,139,159,118,-34,28
1138,28,-2,-30,-13,29,-16,54,141,162,122,-32,30
1139,28,-1,-29,-13,28,-15,54,143,164,124,-29,31
1140,29,2,-27,-15,28,-12,53,144,167,127,-27,32
1141,31,4,-27,-17,29,-11,54,147,169,129,-24,34
1142,32,5,-27,-18,29,-11,54,149,173,133,-21,36
1143,34,7,-27,-20,30,-10,53,150,176,136,-19,37
1144,35,10,-25,-22,30,-7,53,150,178,138,-16,39
1145,36,11,-25,-23,30,-7,54,152,179,141,-13,40
1146,37,13,-24,-25,30,-5,53,153,182,144,-11,42
1147,38,14,-24,-26,31,-5,53,155,184,146,-8,45
1148,39,17,-22,-28,30,-2,51,155,185,149,-5,47
1149,41,19,-22,-30,31,-1,51,156,187,151,-3,50
1150,42,21,-21,-31,31,0,50,156,188,154,0,51
1151,43,23,-20,-33,31,1,48,157,188,156,2,54
1152,44,24,-20,-34,32,2,48,157,190,157,6,56
1153,45,27,-18,-36,31,4,46,157,191,160,8,59
1154,47,29,-18,-38,32,5,45,156,191,161,11,61
1155,48,32,-16,-40,32,8,42,156,191,163,12,62
1156,48,34,-14,-41,31,10,41,154,190,163,14,64
1157,49,37,-12,-43,30,12,39,154,190,165,17,65
1158,50,39,-11,-44,30,14,38,153,190,167,19,67
1159,51,41,-10,-46,30,15,36,151,189,168,20,69
1160,51,43,-8,-47,29,17,33,150,188,167,22,69
1161,51,45,-6,-48,28,19,31,148,187,168,23,71
1162,52,46,-6,-49,29,20,30,146,186,169,25,73
1163,52,47,-5,-49,28,21,28,145,184,169,27,74
1164,54,47,-7,-50,30,20,27,143,183,170,28,76
1165,54,49,-5,-51,29,22,25,142,181,170,30,77
1166,55,50,-5,-52,30,22,24,139,179,169,31,79
1167,55,52,-3,-53,29,24,21,137,177,169,31,80
1168,57,53,-4,-55,30,24,20,134,174,168,33,81
1169,57,55,-2,-56,29,26,18,132,172,167,33,83
1170,58,57,-1,-57,29,28,17,129,168,167,34,83
1171,57,58,1,-57,28,29,14,125,165,165,33,83
1172,58,60,2,-59,28,31,12,122,161,162,34,84
1173,57,60,3,-58,27,31,11,118,157,161,34,84
1174,57,61,4,-59,26,32,8,113,152,159,33,84
1175,56,61,5,-58,25,33,7,109,148,156,33,84
1176,56,60,4,-58,26,32,5,104,143,154,32,83
1177,55,60,5,-57,25,32,4,99,138,151,32,84
1178,54,59,5,-56,24,32,1,95,132,147,31,84
1179,54,58,4,-56,25,31,0,90,127,144,29,83
1180,53,57,4,-55,24,30,-2,86,121,142,29,84
1181,53,56,3,-54,25,29,-2,81,116,139,27,83
1182,53,55,2,-54,25,28,-4,75,110,134,26,83
1183,51,53,2,-52,24,27,-5,71,103,130,24,82
1184,50,52,2,-51,24,27,-5,66,97,125,21,80
1185,50,52,2,-51,24,27,-7,60,90,120,18,79
1186,48,50,2,-49,23,26,-8,55,84,115,15,77
1187,47,49,2,-48,22,25,-8,51,77,109,11,74
1188,45,47,2,-46,21,24,-10,45,69,104,8,72
1189,42,45,3,-43,19,24,-11,40,62,97,4,68
1190,40,42,2,-41,19,22,-11,35,56,92,-1,66
1191,39,40,1,-39,19,20,-12,30,49,87,-5,63
1192,37,37,0,-37,18,18,-11,27,43,81,-8,61
1193,35,33,-2,-34,18,15,-11,23,37,76,-12,58
1194,32,30,-2,-31,17,14,-12,19,32,70,-15,54
1195,30,26,-4,-28,17,11,-11,16,26,65,-19,51
1196,28,22,-6,-25,17,8,-11,13,20,60,-24,47
1197,25,19,-6,-22,15,6,-9,11,16,54,-28,45
1198,23,15,-8,-19,15,3,-8,8,11,49,-31,41
1199,21,11,-10,-16,15,0,-8,6,7,45,-36,38
1200,18,9,-9,-13,13,0,-7,3,1,39,-40,33
1201,16,7,-9,-11,12,-1,-7,1,-3,34,-46,30
1202,14,4,-10,-9,12,-3,-6,-1,-8,28,-50,26
1203,11,2,-9,-6,10,-3,-5,-3,-12,24,-55,21
1204,9,0,-9,-4,9,-4,-5,-4,-15,18,-59,18
1205,7,-2,-9,-2,8,-5,-4,-6,-19,14,-62,14
1206,5,-4,-9,0,7,-6,-3,-8,-22,9,-67,12
1207,3,-6,-9,1,6,-7,-2,-8,-25,6,-71,8
1208,1,-9,-10,4,5,-9,0,-9,-27,1,-74,6
1209,-1,-12,-11,6,5,-11,1,-11,-30,-2,-77,3
1210,-2,-15,-13,8,5,-14,1,-11,-32,-6,-79,1
1211,-3,-16,-13,9,5,-14,3,-12,-34,-8,-82,-1
1212,-4,-19,-15,11,5,-17,4,-12,-36,-11,-85,-2
1213,-5,-21,-16,13,5,-18,4,-12,-37,-13,-86,-4
1214,-7,-24,-17,15,5,-20,5,-13,-39,-16,-89,-5
1215,-8,-25,-17,16,4,-21,5,-13,-41,-18,-91,-7
1216,-8,-25,-17,16,4,-21,6,-14,-42,-19,-92,-9
1217,-9,-27,-18,18,4,-22,7,-14,-42,-21,-92,-9
1218,-9,-28,-19,18,5,-23,7,-13,-43,-22,-94,-11
1219,-10,-28,-18,19,4,-23,8,-14,-43,-24,-95,-12
1220,-12,-29,-17,20,2,-23,8,-14,-44,-25,-97,-14
1221,-12,-29,-17,20,2,-23,9,-13,-45,-26,-98,-15
1222,-13,-30,-17,21,2,-23,9,-13,-45,-26,-98,-16
1223,-13,-30,-17,21,2,-23,11,-12,-45,-27,-100,-16
1224,-13,-31,-18,22,2,-24,11,-13,-46,-27,-101,-17
1225,-14,-32,-18,23,2,-25,11,-12,-46,-28,-101,-19
1226,-14,-32,-18,23,2,-25,12,-13,-47,-29,-102,-19
1227,-15,-33,-18,24,1,-25,12,-13,-47,-28,-102,-20
1228,-15,-33,-18,24,1,-25,13,-12,-46,-28,-103,-20
1229,-15,-33,-18,24,1,-25,12,-12,-46,-29,-103,-21
1230,-15,-33,-18,24,1,-25,12,-11,-46,-28,-103,-21
1231,-15,-34,-19,24,2,-26,13,-11,-45,-29,-102,-22
1232,-16,-34,-18,25,1,-26,12,-11,-45,-29,-102,-22
1233,-16,-34,-18,25,1,-26,12,-10,-44,-28,-101,-21
1234,-16,-33,-17,24,0,-25,13,-10,-44,-28,-101,-22
1235,-15,-33,-18,24,1,-25,13,-9,-43,-27,-100,-22
1236,-15,-34,-19,24,2,-26,14,-8,-43,-27,-100,-23
1237,-16,-34,-18,25,1,-26,14,-8,-42,-27,-100,-22
1238,-16,-35,-19,25,1,-27,15,-7,-41,-26,-99,-22
1239,-17,-34,-17,25,0,-25,14,-7,-41,-26,-99,-21
1240,-16,-34,-18,25,1,-26,15,-6,-40,-26,-98,-22
1241,-15,-34,-19,24,2,-26,15,-6,-40,-25,-98,-22
1242,-15,-35,-20,25,2,-27,16,-5,-38,-25,-97,-21
1243,-15,-35,-20,25,2,-27,15,-5,-38,-24,-97,-21
1244,-15,-34,-19,24,2,-26,15,-5,-38,-23,-97,-21
1245,-15,-34,-19,24,2,-26,16,-5,-37,-24,-96,-21
1246,-14,-34,-20,24,3,-27,15,-5,-37,-24,-96,-21
1247,-14,-34,-20,24,3,-27,15,-4,-36,-23,-96,-20
1248,-13,-33,-20,23,3,-26,14,-4,-36,-23,-95,-20
1249,-13,-32,-19,22,3,-25,15,-5,-37,-22,-95,-21
1250,-14,-31,-17,22,1,-24,14,-4,-36,-22,-94,-21
1251,-13,-30,-17,21,2,-23,14,-4,-36,-23,-94,-22
1252,-13,-29,-16,21,1,-22,13,-5,-37,-23,-94,-22
1253,-14,-29,-15,21,0,-22,14,-5,-37,-22,-94,-21
1254,-13,-28,-15,20,1,-21,14,-5,-36,-22,-93,-21
1255,-13,-28,-15,20,1,-21,15,-4,-36,-21,-93,-22
1256,-14,-29,-15,21,0,-22,15,-4,-35,-21,-93,-21
1257,-14,-30,-16,22,1,-23,15,-5,-35,-21,-92,-21
1258,-14,-30,-16,22,1,-23,14,-4,-34,-20,-92,-22
1259,-13,-31,-18,22,2,-24,15,-4,-35,-20,-91,-21
1260,-13,-31,-18,22,2,-24,15,-5,-34,-19,-90,-21
1261,-14,-31,-17,22,1,-24,16,-4,-34,-19,-90,-20
1262,-14,-32,-18,23,2,-25,15,-4,-35,-20,-89,-19
1263,-14,-33,-19,23,2,-26,15,-5,-35,-20,-89,-20
1264,-14,-32,-18,23,2,-25,15,-5,-36,-20,-88,-19
1265,-13,-32,-19,22,3,-25,14,-6,-36,-21,-88,-19
1266,-14,-31,-17,22,1,-24,14,-6,-38,-21,-88,-20
1267,-14,-30,-16,22,1,-23,13,-6,-38,-22,-87,-19
1268,-13,-31,-18,22,2,-24,14,-7,-39,-21,-87,-19
1269,-13,-30,-17,21,2,-23,13,-7,-39,-22,-86,-18
1270,-12,-30,-18,21,3,-24,13,-7,-39,-22,-86,-19
1271,-12,-30,-18,21,3,-24,13,-8,-40,-23,-87,-18
1272,-13,-30,-17,21,2,-23,13,-8,-40,-23,-87,-18
1273,-13,-31,-18,22,2,-24,13,-9,-41,-23,-86,-17
1274,-12,-30,-18,21,3,-24,12,-9,-42,-24,-86,-18
1275,-12,-30,-18,21,3,-24,12,-11,-42,-24,-87,-18
1276,-13,-31,-18,22,2,-24,12,-11,-43,-25,-87,-19
1277,-14,-31,-17,22,1,-24,11,-12,-45,-27,-87,-19
1278,-14,-30,-16,22,1,-23,11,-12,-46,-27,-88,-20
1279,-14,-30,-16,22,1,-23,9,-14,-48,-29,-88,-21
1280,-14,-29,-15,21,0,-22,9,-15,-49,-30,-88,-21
1281,-14,-29,-15,21,0,-22,8,-15,-49,-30,-89,-22
1282,-14,-30,-16,22,1,-23,8,-16,-51,-31,-89,-22
1283,-14,-30,-16,22,1,-23,7,-16,-52,-31,-90,-21
1284,-13,-29,-16,21,1,-22,7,-17,-52,-32,-89,-21
1285,-13,-28,-15,20,1,-21,7,-18,-54,-33,-89,-22
1286,-14,-29,-15,21,0,-22,8,-18,-54,-33,-89,-22
1287,-13,-30,-17,21,2,-23,8,-18,-54,-33,-89,-21
1288,-13,-31,-18,22,2,-24,9,-18,-55,-34,-89,-21
1289,-12,-30,-18,21,3,-24,9,-19,-55,-35,-89,-21
1290,-12,-29,-17,20,2,-23,8,-20,-57,-35,-90,-22
1291,-13,-29,-16,21,1,-22,8,-20,-57,-36,-90,-22
1292,-13,-28,-15,20,1,-21,7,-21,-58,-36,-89,-21
1293,-12,-28,-16,20,2,-22,7,-21,-58,-37,-89,-22
1294,-12,-29,-17,20,2,-23,8,-22,-59,-38,-90,-22
1295,-13,-28,-15,20,1,-21,7,-22,-59,-38,-90,-23
1296,-13,-29,-16,21,1,-22,7,-23,-60,-39,-90,-23
1297,-14,-30,-16,22,1,-23,6,-23,-61,-40,-90,-24
1298,-13,-30,-17,21,2,-23,6,-22,-60,-39,-89,-24
1299,-13,-31,-18,22,2,-24,7,-23,-61,-40,-89,-23
1300,-14,-31,-17,22,1,-24,7,-23,-61,-40,-89,-24
1301,-14,-31,-17,22,1,-24,8,-24,-61,-41,-90,-24
1302,-14,-32,-18,23,2,-25,8,-23,-62,-40,-90,-23
1303,-15,-32,-17,23,1,-24,7,-24,-62,-40,-90,-23
1304,-15,-31,-16,23,0,-23,7,-24,-63,-41,-90,-24
1305,-16,-31,-15,23,0,-23,8,-25,-64,-41,-90,-24
1306,-16,-31,-15,23,0,-23,8,-25,-64,-41,-91,-23
1307,-16,-31,-15,23,0,-23,9,-26,-65,-42,-90,-23
1308,-17,-32,-15,24,-1,-23,9,-26,-64,-42,-89,-23
1309,-17,-32,-15,24,-1,-23,8,-27,-65,-42,-89,-23
1310,-16,-32,-16,24,0,-24,8,-26,-65,-42,-88,-23
1311,-16,-33,-17,24,0,-25,9,-27,-65,-41,-87,-22
1312,-16,-33,-17,24,0,-25,9,-27,-65,-41,-87,-22
1313,-15,-34,-19,24,2,-26,10,-26,-64,-40,-86,-21
1314,-15,-33,-18,24,1,-25,9,-27,-65,-41,-87,-22
1315,-14,-31,-17,22,1,-24,9,-27,-65,-41,-86,-22
1316,-14,-31,-17,22,1,-24,9,-28,-66,-42,-87,-23
1317,-15,-30,-15,22,0,-22,8,-27,-66,-41,-87,-22
1318,-15,-30,-15,22,0,-22,8,-28,-67,-41,-88,-22
1319,-16,-29,-13,22,-1,-21,7,-28,-67,-42,-88,-23
1320,-17,-29,-12,23,-2,-20,6,-29,-68,-42,-89,-23
1321,-17,-28,-11,22,-3,-19,6,-29,-68,-43,-89,-24
1322,-17,-29,-12,23,-2,-20,5,-29,-69,-42,-88,-24
1323,-17,-30,-13,23,-2,-21,5,-29,-68,-42,-88,-23
1324,-17,-31,-14,24,-1,-22,6,-29,-68,-41,-87,-24
1325,-17,-32,-15,24,-1,-23,5,-29,-67,-41,-86,-24
1326,-17,-32,-15,24,-1,-23,5,-29,-67,-41,-86,-23
1327,-17,-33,-16,25,0,-24,6,-29,-67,-40,-85,-23
1328,-17,-34,-17,25,0,-25,6,-28,-66,-40,-85,-22
1329,-16,-34,-18,25,1,-26,7,-28,-66,-39,-84,-22
1330,-16,-35,-19,25,1,-27,7,-28,-65,-38,-83,-23
1331,-16,-34,-18,25,1,-26,6,-28,-66,-38,-84,-23
1332,-16,-34,-18,25,1,-26,6,-28,-65,-38,-84,-23
1333,-16,-34,-18,25,1,-26,5,-28,-65,-37,-83,-22
1334,-16,-33,-17,24,0,-25,5,-28,-66,-37,-84,-23
1335,-16,-33,-17,24,0,-25,4,-28,-66,-37,-83,-23
1336,-17,-32,-15,24,-1,-23,5,-27,-65,-36,-83,-22
1337,-17,-32,-15,24,-1,-23,5,-27,-66,-36,-82,-22
1338,-16,-32,-16,24,0,-24,4,-28,-66,-36,-83,-21
1339,-17,-31,-14,24,-1,-22,4,-28,-66,-35,-82,-22
1340,-17,-30,-13,23,-2,-21,4,-28,-66,-35,-81,-21
1341,-16,-31,-15,23,0,-23,5,-27,-65,-35,-81,-21
1342,-16,-31,-15,23,0,-23,5,-27,-65,-34,-80,-20
1343,-15,-30,-15,22,0,-22,4,-27,-65,-34,-80,-20
1344,-15,-30,-15,22,0,-22,4,-28,-64,-33,-79,-21
1345,-15,-30,-15,22,0,-22,5,-28,-64,-33,-79,-21
1346,-14,-31,-17,22,1,-24,5,-29,-65,-33,-79,-21
1347,-14,-31,-17,22,1,-24,4,-28,-65,-34,-78,-21
1348,-14,-31,-17,22,1,-24,4,-29,-65,-34,-79,-22
1349,-15,-30,-15,22,0,-22,3,-29,-66,-35,-79,-22
1350,-15,-30,-15,22,0,-22,3,-30,-66,-35,-80,-23
1351,-14,-29,-15,21,0,-22,3,-31,-67,-34,-80,-22
1352,-14,-28,-14,21,0,-21,3,-30,-67,-35,-80,-22
1353,-15,-28,-13,21,-1,-20,2,-30,-66,-35,-79,-23
1354,-15,-27,-12,21,-1,-19,3,-31,-67,-35,-79,-22
1355,-16,-26,-10,21,-3,-18,4,-30,-67,-35,-78,-22
1356,-16,-26,-10,21,-3,-18,4,-30,-66,-34,-78,-21
1357,-15,-27,-12,21,-1,-19,5,-29,-66,-34,-78,-22
1358,-16,-27,-11,21,-2,-19,5,-30,-65,-33,-77,-22
1359,-16,-28,-12,22,-2,-20,6,-29,-65,-33,-77,-21
1360,-15,-28,-13,21,-1,-20,7,-29,-64,-32,-76,-21
1361,-15,-29,-14,22,0,-21,7,-29,-64,-31,-76,-21
1362,-14,-30,-16,22,1,-23,8,-29,-64,-31,-75,-22
1363,-14,-29,-15,21,0,-22,8,-30,-65,-31,-75,-22
1364,-14,-29,-15,21,0,-22,7,-29,-65,-31,-75,-21
1365,-13,-28,-15,20,1,-21,8,-29,-64,-30,-74,-21
1366,-13,-28,-15,20,1,-21,8,-30,-64,-30,-74,-20
1367,-13,-26,-13,19,0,-19,7,-29,-64,-30,-74,-21
1368,-13,-26,-13,19,0,-19,8,-29,-65,-31,-73,-21
1369,-13,-25,-12,19,0,-18,9,-30,-65,-31,-73,-20
1370,-13,-25,-12,19,0,-18,9,-29,-64,-30,-72,-20
1371,-13,-24,-11,18,-1,-17,10,-29,-64,-30,-71,-19
1372,-14,-25,-11,19,-1,-18,11,-28,-64,-30,-72,-19
1373,-14,-25,-11,19,-1,-18,11,-29,-64,-31,-72,-20
1374,-13,-26,-13,19,0,-19,12,-29,-63,-30,-71,-20
1375,-13,-27,-14,20,0,-20,12,-28,-63,-30,-71,-21
1376,-13,-27,-14,20,0,-20,12,-28,-64,-31,-71,-21
1377,-13,-27,-14,20,0,-20,13,-29,-64,-30,-71,-20
1378,-14,-26,-12,20,-1,-19,12,-29,-63,-30,-71,-21
1379,-14,-25,-11,19,-1,-18,13,-28,-64,-29,-70,-21
1380,-14,-25,-11,19,-1,-18,13,-28,-64,-30,-71,-21
1381,-13,-24,-11,18,-1,-17,14,-29,-63,-29,-70,-21
1382,-13,-22,-9,17,-2,-15,13,-29,-64,-29,-70,-20
1383,-12,-21,-9,16,-1,-15,13,-28,-64,-28,-69,-21
1384,-11,-20,-9,15,-1,-14,14,-29,-63,-29,-69,-21
1385,-11,-19,-8,15,-1,-13,14,-29,-63,-29,-69,-20
1386,-11,-19,-8,15,-1,-13,15,-28,-64,-28,-68,-20
1387,-10,-18,-8,14,-1,-13,16,-28,-63,-29,-68,-21
1388,-9,-19,-10,14,0,-14,17,-27,-63,-29,-67,-20
1389,-10,-20,-10,15,0,-15,19,-28,-62,-28,-67,-20
1390,-11,-20,-9,15,-1,-14,20,-28,-62,-28,-66,-19
1391,-11,-21,-10,16,0,-15,22,-27,-61,-29,-66,-20
1392,-11,-20,-9,15,-1,-14,23,-27,-61,-28,-65,-19
1393,-11,-20,-9,15,-1,-14,25,-28,-60,-28,-64,-19
1394,-11,-21,-10,16,0,-15,26,-27,-61,-27,-64,-18
1395,-12,-21,-9,16,-1,-15,28,-27,-60,-28,-63,-19
1396,-12,-22,-10,17,-1,-16,30,-27,-60,-28,-64,-18
1397,-13,-21,-8,17,-2,-14,31,-27,-60,-27,-63,-18
1398,-13,-21,-8,17,-2,-14,33,-28,-61,-27,-63,-19
1399,-12,-21,-9,16,-1,-15,36,-27,-60,-28,-63,-18
1400,-12,-21,-9,16,-1,-15,38,-26,-60,-27,-62,-18
1401,-12,-22,-10,17,-1,-16,41,-27,-59,-27,-62,-17
1402,-12,-21,-9,16,-1,-15,45,-27,-60,-28,-61,-17
1403,-12,-21,-9,16,-1,-15,48,-27,-59,-27,-62,-18
1404,-12,-20,-8,16,-2,-14,53,-27,-59,-27,-61,-18
1405,-12,-20,-8,16,-2,-14,60,-26,-60,-26,-61,-17
1406,-12,-21,-9,16,-1,-15,67,-26,-59,-27,-60,-17
1407,-12,-20,-8,16,-2,-14,74,-26,-59,-27,-60,-18
1408,-12,-20,-8,16,-2,-14,83,-26,-58,-26,-60,-18
1409,-12,-18,-6,15,-3,-12,91,-26,-59,-26,-59,-19
1410,-11,-18,-7,14,-2,-12,100,-25,-58,-25,-59,-19
1411,-11,-17,-6,14,-2,-11,107,-24,-58,-25,-58,-18
1412,-10,-17,-7,13,-1,-12,113,-24,-57,-24,-59,-18
1413,-9,-15,-6,12,-1,-10,118,-24,-58,-25,-58,-19
1414,-9,-15,-6,12,-1,-10,121,-23,-57,-25,-58,-19
1415,-8,-14,-6,11,-1,-10,124,-23,-57,-24,-57,-18
1416,-7,-13,-6,10,0,-9,124,-23,-56,-25,-57,-18
1417,-7,-11,-4,9,-1,-7,124,-23,-56,-24,-57,-17
1418,-6,-9,-3,7,-1,-6,123,-23,-56,-24,-55,-17
1419,-6,-8,-2,7,-2,-5,121,-22,-54,-23,-54,-16
1420,-5,-5,0,5,-2,-2,120,-22,-53,-21,-53,-15
1421,-5,-3,2,4,-3,0,118,-23,-52,-20,-52,-13
1422,-5,-1,4,3,-4,1,117,-22,-50,-18,-50,-12
1423,-4,2,6,1,-5,4,115,-21,-49,-17,-48,-10
1424,-3,4,7,0,-5,5,114,-21,-47,-15,-46,-9
1425,-3,6,9,-1,-6,7,112,-20,-45,-14,-44,-7
1426,-2,7,9,-2,-5,8,109,-20,-44,-12,-42,-7
1427,-1,9,10,-4,-5,9,107,-19,-43,-12,-42,-6
1428,-1,9,10,-4,-5,9,103,-19,-43,-11,-41,-7
1429,-1,10,11,-4,-6,10,100,-18,-42,-11,-40,-6
1430,-1,10,11,-4,-6,10,96,-19,-42,-10,-40,-6
1431,0,10,10,-5,-5,10,90,-19,-42,-11,-40,-7
1432,0,9,9,-4,-4,9,85,-21,-43,-12,-41,-7
1433,0,9,9,-4,-4,9,79,-22,-43,-12,-41,-8
1434,0,8,8,-4,-4,8,73,-24,-45,-13,-42,-8
1435,0,8,8,-4,-4,8,69,-25,-46,-13,-42,-8
1436,0,7,7,-3,-3,7,64,-27,-46,-13,-41,-8
1437,1,8,7,-4,-3,7,61,-28,-47,-13,-41,-7
1438,2,8,6,-5,-2,7,57,-30,-48,-13,-41,-8
1439,2,9,7,-5,-2,8,55,-30,-49,-13,-40,-7
1440,3,9,6,-6,-1,7,53,-30,-48,-13,-39,-6
1441,3,8,5,-5,-1,6,52,-30,-48,-12,-38,-6
1442,5,8,3,-6,1,5,51,-29,-47,-11,-37,-5
1443,5,7,2,-6,1,4,49,-29,-47,-11,-37,-5
1444,6,7,1,-6,2,4,48,-28,-46,-11,-36,-4
1445,6,5,-1,-5,3,2,46,-27,-45,-10,-34,-4
1446,7,4,-3,-5,5,0,44,-26,-45,-10,-34,-5
1447,7,2,-5,-4,6,-1,42,-25,-44,-9,-33,-4
1448,8,1,-7,-4,7,-3,38,-25,-45,-9,-34,-5
1449,8,-1,-9,-3,8,-5,35,-24,-45,-10,-33,-4
1450,8,-2,-10,-3,9,-6,33,-22,-45,-10,-33,-4
1451,8,-4,-12,-2,10,-8,30,-22,-45,-9,-32,-3
1452,7,-5,-12,-1,9,-8,27,-21,-44,-9,-31,-3
1453,7,-7,-14,0,10,-10,24,-21,-45,-10,-32,-4
1454,7,-8,-15,0,11,-11,20,-20,-45,-10,-31,-3
1455,6,-9,-15,1,10,-12,17,-20,-44,-9,-31,-4
1456,6,-10,-16,2,11,-13,14,-19,-44,-9,-30,-3
1457,5,-10,-15,2,10,-12,11,-18,-44,-9,-31,-4
1458,3,-10,-13,3,8,-11,7,-18,-44,-10,-31,-5
1459,2,-10,-12,4,7,-11,4,-18,-45,-11,-32,-6
1460,0,-11,-11,5,5,-11,0,-17,-45,-11,-32,-8
1461,-3,-12,-9,7,3,-10,-3,-17,-45,-12,-33,-8
1462,-5,-14,-9,9,2,-11,-5,-18,-46,-12,-34,-9
1463,-6,-16,-10,11,2,-13,-9,-18,-47,-14,-36,-11
1464,-8,-19,-11,13,1,-15,-12,-19,-47,-16,-37,-12
1465,-10,-22,-12,16,1,-17,-16,-19,-48,-17,-39,-14
1466,-11,-24,-13,17,1,-18,-18,-21,-50,-19,-40,-14
1467,-12,-26,-14,19,1,-20,-21,-21,-51,-20,-40,-15
1468,-13,-28,-15,20,1,-21,-25,-22,-53,-21,-41,-15
1469,-14,-30,-16,22,1,-23,-27,-22,-54,-23,-41,-17
1470,-15,-31,-16,23,0,-23,-30,-23,-55,-24,-43,-17
1471,-14,-31,-17,22,1,-24,-32,-24,-55,-25,-43,-18
1472,-15,-30,-15,22,0,-22,-33,-24,-56,-26,-44,-18
1473,-15,-30,-15,22,0,-22,-35,-25,-56,-26,-43,-19
1474,-14,-29,-15,21,0,-22,-36,-25,-57,-27,-43,-18
1475,-14,-28,-14,21,0,-21,-37,-24,-56,-27,-44,-19
1476,-13,-27,-14,20,0,-20,-37,-25,-56,-27,-44,-19
1477,-13,-26,-13,19,0,-19,-38,-24,-55,-26,-43,-20
1478,-13,-25,-12,19,0,-18,-38,-24,-55,-26,-43,-19
1479,-13,-25,-12,19,0,-18,-39,-25,-55,-25,-42,-19
1480,-13,-26,-13,19,0,-19,-40,-24,-54,-25,-42,-20
1481,-13,-26,-13,19,0,-19,-40,-24,-54,-24,-41,-19
1482,-13,-25,-12,19,0,-18,-42,-23,-54,-24,-41,-19
1483,-14,-25,-11,19,-1,-18,-44,-24,-54,-23,-40,-18
1484,-14,-24,-10,19,-2,-17,-45,-23,-53,-23,-40,-18
1485,-13,-24,-11,18,-1,-17,-47,-23,-53,-23,-39,-19
1486,-13,-24,-11,18,-1,-17,-48,-22,-52,-22,-40,-18
1487,-13,-23,-10,18,-1,-16,-51,-23,-53,-22,-39,-18
1488,-13,-23,-10,18,-1,-16,-53,-23,-53,-22,-39,-19
1489,-13,-22,-9,17,-2,-15,-55,-23,-53,-22,-38,-19
1490,-12,-21,-9,16,-1,-15,-57,-23,-53,-21,-38,-18
1491,-13,-21,-8,17,-2,-14,-61,-25,-54,-21,-37,-18
1492,-13,-21,-8,17,-2,-14,-64,-27,-56,-22,-36,-17
1493,-13,-21,-8,17,-2,-14,-66,-29,-58,-23,-36,-17
1494,-12,-21,-9,16,-1,-15,-69,-30,-59,-23,-35,-16
1495,-13,-22,-9,17,-2,-15,-70,-30,-59,-23,-35,-16
1496,-14,-23,-9,18,-2,-16,-71,-31,-60,-23,-36,-17
1497,-16,-23,-7,19,-4,-15,-69,-29,-58,-24,-37,-19
1498,-18,-25,-7,21,-5,-16,-64,-23,-53,-24,-39,-22
1499,-20,-28,-8,24,-6,-18,-55,-11,-44,-23,-43,-27
1500,-24,-31,-7,27,-8,-19,-43,4,-31,-21,-48,-34
1501,-28,-33,-5,30,-11,-19,-28,22,-13,-17,-53,-41
1502,-31,-35,-4,33,-13,-19,-12,44,10,-10,-56,-47
1503,-34,-36,-2,35,-16,-19,6,70,37,0,-56,-51
1504,-33,-35,-2,34,-15,-18,25,100,69,15,-51,-53
1505,-29,-31,-2,30,-13,-16,43,132,106,37,-41,-49
1506,-20,-19,1,19,-10,-9,56,164,147,66,-20,-36
1507,-5,4,9,0,-7,6,60,189,186,104,11,-13
1508,15,38,23,-26,-4,30,54,203,220,148,56,23
1509,41,79,38,-60,1,58,39,206,247,197,111,68
1510,69,129,60,-99,4,94,16,199,264,250,175,123
1511,99,190,91,-144,4,140,-18,177,271,303,245,186
1512,129,261,132,-195,-1,196,-64,135,261,354,319,254
1513,158,333,175,-245,-8,254,-119,73,232,397,390,323
1514,181,396,215,-288,-17,305,-179,-4,184,428,450,383
1515,195,444,249,-319,-27,346,-236,-86,123,444,493,430
1516,201,475,274,-338,-36,374,-286,-166,57,445,515,458
1517,201,490,289,-345,-44,389,-331,-244,-14,430,515,469
1518,193,487,294,-340,-50,390,-371,-317,-90,395,493,460
1519,176,463,287,-319,-55,375,-401,-381,-167,342,447,431
1520,152,417,265,-284,-56,341,-416,-426,-233,278,382,382
1521,125,357,232,-241,-53,294,-415,-449,-286,207,304,320
1522,96,293,197,-194,-50,245,-405,-457,-329,129,219,252
1523,70,232,162,-151,-46,197,-390,-452,-364,48,134,185
1524,46,176,130,-111,-42,153,-369,-435,-387,-29,56,122
1525,23,125,102,-74,-39,113,-340,-406,-397,-93,-10,67
1526,5,81,76,-43,-35,78,-306,-367,-390,-139,-62,22
1527,-9,47,56,-19,-32,51,-270,-321,-370,-169,-97,-12
1528,-17,24,41,-3,-29,32,-238,-276,-342,-184,-117,-33
1529,-21,11,32,5,-26,21,-208,-232,-310,-187,-124,-46
1530,-22,2,24,10,-23,13,-181,-189,-270,-175,-120,-50
1531,-20,-4,16,12,-18,6,-155,-146,-223,-149,-107,-49
1532,-18,-8,10,13,-14,1,-132,-106,-174,-116,-90,-45
1533,-15,-10,5,12,-10,-2,-113,-74,-130,-85,-73,-41
1534,-12,-10,2,11,-7,-4,-98,-49,-94,-59,-58,-36
1535,-9,-11,-2,10,-3,-6,-85,-30,-64,-37,-45,-31
1536,-8,-12,-4,10,-2,-8,-74,-13,-39,-18,-35,-27
1537,-7,-14,-7,10,0,-10,-62,0,-19,-4,-27,-24
1538,-7,-14,-7,10,0,-10,-53,9,-6,5,-22,-22
1539,-8,-15,-7,11,0,-11,-45,15,2,9,-21,-22
1540,-9,-16,-7,12,-1,-11,-40,19,5,9,-21,-22
1541,-10,-18,-8,14,-1,-13,-36,22,7,8,-21,-23
1542,-10,-19,-9,14,0,-14,-32,25,9,8,-21,-24
1543,-10,-21,-11,15,0,-16,-29,28,10,8,-22,-24
1544,-11,-24,-13,17,1,-18,-27,30,10,7,-23,-26
1545,-12,-26,-14,19,1,-20,-26,31,11,7,-23,-27
1546,-12,-28,-16,20,2,-22,-25,32,12,7,-24,-28
1547,-12,-29,-17,20,2,-23,-24,34,14,8,-22,-27
1548,-12,-30,-18,21,3,-24,-23,35,16,9,-22,-28
1549,-12,-31,-19,21,3,-25,-22,37,17,9,-21,-28
1550,-13,-32,-19,22,3,-25,-21,38,19,10,-21,-29
1551,-13,-31,-18,22,2,-24,-19,40,21,10,-21,-28
1552,-12,-30,-18,21,3,-24,-18,41,22,12,-19,-28
1553,-12,-28,-16,20,2,-22,-17,42,24,13,-18,-27
1554,-11,-28,-17,19,3,-22,-16,44,26,15,-18,-27
1555,-10,-28,-18,19,4,-23,-16,45,27,15,-17,-26
1556,-10,-27,-17,18,3,-22,-15,45,29,16,-15,-25
1557,-9,-27,-18,18,4,-22,-15,47,30,18,-14,-25
1558,-8,-26,-18,17,5,-22,-14,48,32,19,-14,-24
1559,-8,-25,-17,16,4,-21,-14,49,33,21,-12,-24
1560,-8,-27,-19,17,5,-23,-13,50,35,22,-11,-23
1561,-9,-28,-19,18,5,-23,-13,50,37,22,-9,-22
1562,-8,-29,-21,18,6,-25,-13,51,38,23,-9,-22
1563,-8,-27,-19,17,5,-23,-12,51,39,25,-8,-22
1564,-9,-27,-18,18,4,-22,-12,52,40,26,-7,-21
1565,-9,-26,-17,17,4,-21,-11,53,42,26,-7,-21
1566,-8,-26,-18,17,5,-22,-12,53,43,27,-6,-21
1567,-8,-26,-18,17,5,-22,-11,54,44,28,-6,-21
1568,-7,-24,-17,15,5,-20,-11,55,44,28,-6,-21
1569,-6,-23,-17,14,5,-20,-10,56,45,29,-5,-20
1570,-6,-21,-15,13,4,-18,-10,56,47,29,-4,-20
1571,-5,-20,-15,12,5,-17,-9,57,48,30,-4,-21
1572,-5,-20,-15,12,5,-17,-9,57,50,32,-3,-21
1573,-5,-19,-14,12,4,-16,-8,58,51,32,-3,-20
1574,-4,-19,-15,11,5,-17,-8,59,52,34,-2,-20
1575,-4,-19,-15,11,5,-17,-6,60,54,35,0,-19
1576,-3,-18,-15,10,6,-16,-6,62,55,37,0,-19
1577,-3,-18,-15,10,6,-16,-5,62,56,38,1,-18
1578,-4,-18,-14,11,5,-16,-5,63,58,39,3,-18
1579,-3,-19,-16,11,6,-17,-4,64,59,41,4,-17
1580,-3,-18,-15,10,6,-16,-3,66,62,42,6,-17
1581,-2,-18,-16,10,7,-17,-3,67,64,43,6,-16
1582,-3,-17,-14,10,5,-15,-2,67,65,45,7,-15
1583,-2,-17,-15,9,6,-16,-2,69,67,46,9,-15
1584,-2,-16,-14,9,6,-15,-1,70,68,48,10,-14
1585,-1,-15,-14,8,6,-14,-1,70,70,49,10,-14
1586,-1,-15,-14,8,6,-14,1,72,73,50,12,-13
1587,0,-14,-14,7,7,-14,1,73,75,52,13,-13
1588,1,-14,-15,6,8,-14,2,75,76,53,13,-12
1589,1,-14,-15,6,8,-14,2,75,78,54,15,-12
1590,2,-12,-14,5,8,-13,4,76,79,56,16,-11
1591,2,-11,-13,4,7,-12,4,78,82,57,16,-10
1592,4,-11,-15,3,9,-13,5,79,83,59,18,-10
1593,5,-10,-15,2,10,-12,6,81,85,61,19,-9
1594,5,-9,-14,2,9,-11,8,81,86,62,21,-9
1595,6,-8,-14,1,10,-11,8,83,89,64,21,-8
1596,7,-7,-14,0,10,-10,9,84,90,65,22,-6
1597,7,-7,-14,0,10,-10,11,86,93,67,24,-5
1598,7,-7,-14,0,10,-10,12,88,95,70,25,-5
1599,8,-6,-14,-1,11,-10,13,89,98,72,27,-4
1600,9,-5,-14,-2,11,-9,13,91,99,73,28,-4
1601,9,-5,-14,-2,11,-9,15,92,102,75,30,-3
1602,9,-4,-13,-2,11,-8,15,94,104,76,30,-2
1603,9,-4,-13,-2,11,-8,16,96,107,78,32,-2
1604,10,-3,-13,-3,11,-8,15,97,108,81,33,-1
1605,10,-2,-12,-4,11,-7,15,99,111,82,35,-1
1606,10,0,-10,-5,10,-5,16,102,113,84,36,0
1607,11,1,-10,-6,10,-4,16,103,116,85,37,0
1608,11,3,-8,-7,9,-2,17,105,118,88,39,2
1609,12,4,-8,-8,10,-2,17,107,122,90,40,3
1610,14,6,-8,-10,11,-1,17,110,124,93,42,3
1611,14,7,-7,-10,10,0,18,113,127,95,45,4
1612,15,7,-8,-11,11,0,18,115,130,98,47,5
1613,17,9,-8,-13,12,0,18,117,133,101,48,7
1614,18,11,-7,-14,12,2,19,121,137,103,50,8
1615,20,12,-8,-16,14,2,19,123,140,106,53,9
1616,22,13,-9,-17,15,2,20,126,143,108,55,11
1617,23,13,-10,-18,16,1,19,128,147,112,58,12
1618,24,14,-10,-19,17,2,20,131,149,114,59,15
1619,24,16,-8,-20,16,4,20,133,153,117,62,17
1620,25,17,-8,-21,16,4,21,136,156,120,64,18
1621,26,19,-7,-22,16,6,21,138,160,122,67,20
1622,26,20,-6,-23,16,7,20,141,162,125,69,21
1623,27,20,-7,-23,17,6,21,142,165,127,71,24
1624,28,22,-6,-25,17,8,21,145,169,130,74,25
1625,28,24,-4,-26,16,10,20,147,171,133,76,27
1626,29,27,-2,-28,15,12,20,148,174,135,79,28
1627,31,29,-2,-30,16,13,19,150,176,138,81,30
1628,32,30,-2,-31,17,14,19,151,179,141,84,31
1629,33,33,0,-33,16,16,17,153,180,142,85,33
1630,34,35,1,-34,16,18,17,154,182,144,88,34
1631,36,39,3,-37,16,21,16,155,184,147,90,36
1632,38,42,4,-40,17,23,16,155,185,149,93,37
1633,39,44,5,-41,17,24,15,156,187,151,95,40
1634,41,47,6,-44,17,26,13,156,188,153,97,41
1635,42,49,7,-45,17,28,12,156,189,154,100,43
1636,42,51,9,-46,16,30,12,157,190,156,102,45
1637,43,53,10,-48,16,31,11,157,191,159,105,47
1638,45,55,10,-50,17,32,11,156,191,160,107,49
1639,45,56,11,-50,17,33,10,156,192,162,108,51
1640,46,57,11,-51,17,34,8,155,192,163,111,53
1641,47,57,10,-52,18,33,7,155,191,164,113,56
1642,48,58,10,-53,19,34,7,154,192,166,116,58
1643,49,60,11,-54,19,35,5,153,191,166,117,59
1644,49,61,12,-55,18,36,3,151,191,167,119,62
1645,50,63,13,-56,18,38,2,150,190,167,120,63
1646,52,65,13,-58,19,39,0,148,189,168,122,65
1647,53,66,13,-59,20,39,-1,147,187,168,123,66
1648,53,68,15,-60,19,41,-2,145,186,169,125,68
1649,54,70,16,-62,19,43,-4,143,183,168,126,69
1650,55,71,16,-63,19,43,-5,140,181,168,126,70
1651,56,73,17,-64,19,45,-6,138,178,166,126,70
1652,56,74,18,-65,19,46,-8,135,176,166,127,71
1653,55,74,19,-64,18,46,-9,132,172,165,127,72
1654,55,75,20,-65,17,47,-11,128,169,163,127,72
1655,55,76,21,-65,17,48,-12,125,165,162,127,73
1656,55,77,22,-66,16,49,-14,120,161,160,126,73
1657,55,78,23,-66,16,50,-17,116,156,157,126,73
1658,54,78,24,-66,15,51,-19,111,152,155,126,74
1659,54,79,25,-66,14,52,-20,106,147,152,125,74
1660,53,79,26,-66,13,52,-23,100,142,150,124,73
1661,53,79,26,-66,13,52,-25,96,136,147,124,73
1662,54,80,26,-67,14,53,-26,91,131,144,122,73
1663,54,81,27,-67,13,54,-28,85,125,141,121,73
1664,53,79,26,-66,13,52,-29,80,120,137,119,72
1665,53,77,24,-65,14,50,-31,75,114,134,119,72
1666,52,76,24,-64,14,50,-32,70,108,130,117,71
1667,50,74,24,-62,13,49,-32,65,102,125,115,71
1668,50,73,23,-61,13,48,-34,60,96,121,113,70
1669,48,70,22,-59,13,46,-34,54,89,116,110,68
1670,45,66,21,-55,12,43,-35,50,83,111,108,66
1671,42,61,19,-51,11,40,-35,45,76,106,105,64
1672,40,59,19,-49,10,39,-36,39,68,100,101,61
1673,38,57,19,-47,9,38,-36,34,62,94,96,59
1674,36,55,19,-45,8,37,-37,28,55,88,93,55
1675,33,53,20,-43,6,36,-37,23,47,81,88,52
1676,31,51,20,-41,5,35,-38,19,41,75,83,48
1677,29,49,20,-39,4,34,-37,14,34,70,79,45
1678,27,48,21,-37,3,34,-36,10,28,64,74,42
1679,25,46,21,-35,2,33,-36,7,23,58,69,38
1680,23,43,20,-33,1,31,-35,3,17,53,65,35
1681,21,40,19,-30,1,29,-34,1,13,47,61,32
1682,19,37,18,-28,0,27,-33,-2,7,41,56,28
1683,17,33,16,-25,0,24,-32,-4,3,36,52,25
1684,15,29,14,-22,0,21,-30,-7,-2,31,47,21
1685,13,26,13,-19,0,19,-29,-8,-5,25,43,18
1686,10,22,12,-16,-1,17,-28,-11,-10,20,39,15
1687,8,18,10,-13,-1,14,-27,-13,-14,14,34,11
1688,6,15,9,-10,-1,12,-26,-15,-18,10,29,7
1689,3,12,9,-7,-3,10,-24,-16,-21,5,26,5
1690,1,10,9,-5,-4,9,-23,-18,-25,1,21,2
1691,0,8,8,-4,-4,8,-23,-20,-28,-4,17,-2
1692,-3,5,8,-1,-5,6,-21,-21,-31,-7,14,-4
1693,-5,3,8,1,-6,5,-20,-22,-34,-11,10,-7
1694,-6,0,6,3,-6,3,-18,-23,-35,-14,8,-9
1695,-7,-3,4,5,-5,0,-17,-23,-38,-17,6,-10
1696,-8,-4,4,6,-6,0,-15,-24,-40,-20,3,-13
1697,-9,-5,4,7,-6,0,-14,-24,-41,-22,1,-15
1698,-10,-7,3,8,-6,-2,-14,-24,-43,-25,-1,-16
1699,-10,-8,2,9,-6,-3,-12,-25,-44,-26,-3,-18
1700,-11,-9,2,10,-6,-3,-11,-25,-45,-28,-4,-20
1701,-12,-9,3,10,-7,-3,-11,-26,-46,-30,-6,-21
1702,-13,-10,3,11,-8,-3,-10,-26,-46,-31,-7,-23
1703,-14,-11,3,12,-8,-4,-10,-26,-47,-33,-9,-24
1704,-15,-11,4,13,-9,-3,-9,-25,-46,-34,-9,-26
1705,-16,-13,3,14,-9,-5,-9,-25,-46,-34,-11,-26
1706,-17,-15,2,16,-9,-6,-7,-24,-47,-35,-12,-27
1707,-17,-17,0,17,-8,-8,-7,-25,-47,-36,-12,-27
1708,-18,-17,1,17,-9,-8,-7,-24,-48,-36,-13,-29
1709,-19,-18,1,18,-10,-8,-6,-24,-48,-37,-13,-29
1710,-19,-19,0,19,-9,-9,-6,-23,-47,-37,-14,-29
1711,-19,-19,0,19,-9,-9,-5,-22,-47,-36,-13,-30
1712,-19,-20,-1,19,-9,-10,-5,-22,-46,-36,-14,-30
1713,-18,-19,-1,18,-8,-10,-6,-22,-47,-37,-14,-31
1714,-18,-17,1,17,-9,-8,-6,-21,-47,-37,-15,-31
1715,-17,-17,0,17,-8,-8,-6,-21,-47,-38,-15,-30
1716,-17,-16,1,16,-9,-7,-5,-20,-46,-37,-14,-31
1717,-18,-17,1,17,-9,-8,-5,-20,-46,-37,-15,-31
1718,-18,-16,2,17,-10,-7,-4,-20,-45,-38,-15,-30
1719,-17,-16,1,16,-9,-7,-4,-19,-45,-37,-14,-30
1720,-18,-17,1,17,-9,-8,-4,-19,-44,-37,-15,-31
1721,-18,-17,1,17,-9,-8,-3,-19,-44,-36,-14,-31
1722,-19,-18,1,18,-10,-8,-3,-18,-43,-37,-15,-32
1723,-18,-18,0,18,-9,-9,-3,-18,-42,-36,-15,-31
1724,-18,-18,0,18,-9,-9,-3,-18,-42,-36,-14,-32
1725,-19,-18,1,18,-10,-8,-2,-17,-41,-36,-14,-32
1726,-19,-17,2,18,-10,-7,-2,-17,-41,-35,-15,-33
1727,-18,-17,1,17,-9,-8,-1,-16,-40,-35,-14,-32
1728,-18,-18,0,18,-9,-9,-1,-17,-40,-34,-14,-32
1729,-18,-17,1,17,-9,-8,-2,-16,-40,-35,-13,-33
1730,-18,-17,1,17,-9,-8,-2,-16,-39,-34,-14,-32
1731,-18,-18,0,18,-9,-9,-1,-15,-39,-34,-13,-32
1732,-18,-18,0,18,-9,-9,-1,-15,-38,-33,-13,-31
1733,-18,-17,1,17,-9,-8,-1,-15,-38,-34,-12,-31
1734,-18,-17,1,17,-9,-8,-1,-16,-38,-34,-13,-32
1735,-18,-16,2,17,-10,-7,-2,-16,-39,-35,-13,-32
1736,-19,-16,3,17,-11,-6,-1,-17,-39,-35,-12,-31
1737,-19,-16,3,17,-11,-6,-2,-16,-38,-34,-13,-32
1738,-18,-15,3,16,-10,-6,-2,-16,-39,-35,-13,-32
1739,-19,-15,4,17,-11,-5,-3,-17,-39,-35,-12,-33
1740,-19,-15,4,17,-11,-5,-2,-17,-39,-36,-13,-32
1741,-18,-14,4,16,-11,-5,-2,-18,-39,-35,-12,-32
1742,-18,-14,4,16,-11,-5,-3,-18,-38,-35,-12,-31
1743,-17,-14,3,15,-10,-5,-3,-17,-39,-34,-10,-31
1744,-17,-15,2,16,-9,-6,-2,-17,-38,-34,-10,-29
1745,-17,-15,2,16,-9,-6,-2,-18,-38,-33,-9,-29
1746,-16,-14,2,15,-9,-6,-3,-18,-38,-34,-9,-29
1747,-16,-15,1,15,-8,-7,-2,-17,-38,-34,-8,-28
1748,-15,-15,0,15,-7,-7,-2,-17,-39,-33,-7,-28
1749,-15,-15,0,15,-7,-7,-2,-18,-39,-33,-7,-27
1750,-15,-15,0,15,-7,-7,-3,-18,-39,-33,-7,-27
1751,-15,-15,0,15,-7,-7,-3,-19,-40,-34,-7,-28
1752,-16,-15,1,15,-8,-7,-4,-19,-40,-34,-8,-28
1753,-16,-14,2,15,-9,-6,-4,-20,-41,-34,-8,-29
1754,-15,-13,2,14,-8,-5,-4,-21,-43,-35,-8,-30
1755,-16,-13,3,14,-9,-5,-5,-21,-44,-35,-9,-29
1756,-16,-12,4,14,-10,-4,-5,-22,-44,-37,-9,-30
1757,-15,-10,5,12,-10,-2,-6,-23,-45,-37,-10,-30
1758,-15,-10,5,12,-10,-2,-7,-23,-47,-38,-10,-31
1759,-15,-9,6,12,-10,-1,-7,-23,-47,-38,-11,-30
1760,-14,-9,5,11,-9,-2,-8,-24,-48,-40,-10,-30
1761,-14,-10,4,12,-9,-3,-8,-24,-48,-40,-10,-31
1762,-14,-10,4,12,-9,-3,-7,-25,-50,-41,-11,-30
1763,-14,-10,4,12,-9,-3,-8,-25,-50,-41,-10,-30
1764,-15,-11,4,13,-9,-3,-8,-25,-51,-42,-10,-31
1765,-14,-12,2,13,-8,-5,-7,-26,-51,-42,-11,-30
1766,-14,-12,2,13,-8,-5,-8,-26,-53,-43,-11,-30
1767,-15,-12,3,13,-9,-4,-8,-26,-53,-44,-11,-29
1768,-15,-13,2,14,-8,-5,-9,-27,-54,-44,-12,-30
1769,-16,-14,2,15,-9,-6,-8,-27,-54,-45,-12,-30
1770,-17,-14,3,15,-10,-5,-8,-28,-55,-46,-13,-31
1771,-17,-14,3,15,-10,-5,-9,-28,-57,-47,-13,-31
1772,-17,-14,3,15,-10,-5,-9,-29,-58,-47,-13,-31
1773,-18,-14,4,16,-11,-5,-10,-28,-58,-48,-14,-31
1774,-18,-15,3,16,-10,-6,-10,-29,-59,-49,-13,-31
1775,-18,-15,3,16,-10,-6,-9,-29,-59,-49,-14,-31
1776,-17,-14,3,15,-10,-5,-10,-30,-60,-50,-14,-32
1777,-17,-14,3,15,-10,-5,-10,-30,-60,-51,-15,-32
1778,-18,-13,5,15,-11,-4,-11,-29,-61,-51,-14,-32
1779,-18,-14,4,16,-11,-5,-11,-29,-61,-52,-14,-32
1780,-17,-14,3,15,-10,-5,-11,-30,-61,-52,-15,-32
1781,-18,-13,5,15,-11,-4,-10,-30,-62,-52,-15,-32
1782,-18,-13,5,15,-11,-4,-10,-31,-62,-53,-15,-33
1783,-17,-12,5,14,-11,-3,-11,-31,-63,-54,-16,-33
1784,-18,-12,6,15,-12,-3,-11,-32,-64,-54,-16,-33
1785,-18,-13,5,15,-11,-4,-11,-32,-64,-55,-17,-34
1786,-19,-13,6,16,-12,-3,-10,-33,-65,-55,-17,-34
1787,-19,-14,5,16,-12,-4,-10,-32,-65,-55,-16,-33
1788,-18,-15,3,16,-10,-6,-11,-33,-66,-56,-17,-34
1789,-18,-14,4,16,-11,-5,-11,-33,-66,-56,-17,-34
1790,-18,-15,3,16,-10,-6,-10,-34,-66,-57,-16,-33
1791,-18,-15,3,16,-10,-6,-10,-33,-67,-57,-17,-33
1792,-18,-15,3,16,-10,-6,-11,-33,-67,-57,-16,-34
1793,-18,-15,3,16,-10,-6,-11,-34,-68,-56,-16,-33
1794,-18,-14,4,16,-11,-5,-11,-34,-67,-56,-17,-33
1795,-18,-15,3,16,-10,-6,-12,-35,-68,-57,-17,-34
1796,-19,-15,4,17,-11,-5,-12,-35,-68,-57,-16,-34
1797,-19,-15,4,17,-11,-5,-12,-36,-69,-58,-16,-33
1798,-19,-14,5,16,-12,-4,-13,-35,-69,-58,-16,-34
1799,-19,-14,5,16,-12,-4,-13,-36,-68,-57,-16,-34
1800,-20,-15,5,17,-12,-5,-14,-36,-68,-58,-16,-33
1801,-20,-15,5,17,-12,-5,-14,-35,-69,-58,-16,-33
1802,-21,-16,5,18,-13,-5,-13,-36,-69,-59,-17,-34
1803,-21,-15,6,18,-13,-4,-13,-36,-70,-58,-17,-34
1804,-22,-16,6,19,-14,-5,-13,-37,-70,-58,-16,-34
1805,-22,-16,6,19,-14,-5,-14,-36,-69,-59,-17,-34
1806,-22,-15,7,18,-14,-4,-14,-37,-69,-59,-17,-34
1807,-21,-15,6,18,-13,-4,-15,-37,-70,-60,-16,-35
1808,-21,-14,7,17,-14,-3,-15,-38,-70,-60,-17,-35
1809,-20,-13,7,16,-13,-3,-15,-38,-70,-59,-17,-34
1810,-20,-12,8,16,-14,-2,-16,-37,-70,-59,-16,-35
1811,-19,-11,8,15,-13,-1,-16,-37,-70,-60,-17,-35
1812,-19,-12,7,15,-13,-2,-15,-38,-70,-60,-17,-34
1813,-20,-12,8,16,-14,-2,-16,-38,-71,-60,-16,-35
1814,-20,-12,8,16,-14,-2,-16,-38,-70,-60,-16,-34
1815,-19,-14,5,16,-12,-4,-15,-37,-69,-59,-15,-34
1816,-20,-14,6,17,-13,-4,-15,-37,-69,-59,-15,-33
1817,-21,-15,6,18,-13,-4,-14,-38,-69,-59,-14,-34
1818,-21,-15,6,18,-13,-4,-14,-38,-70,-58,-15,-34
1819,-21,-16,5,18,-13,-5,-15,-38,-69,-58,-14,-33
1820,-21,-16,5,18,-13,-5,-15,-37,-69,-59,-14,-33
1821,-20,-15,5,17,-12,-5,-14,-37,-68,-59,-13,-32
1822,-21,-15,6,18,-13,-4,-14,-36,-69,-58,-14,-32
1823,-21,-14,7,17,-14,-3,-13,-36,-69,-58,-14,-33
1824,-20,-14,6,17,-13,-4,-13,-37,-68,-58,-13,-32
1825,-19,-14,5,16,-12,-4,-14,-37,-69,-59,-14,-33
1826,-18,-13,5,15,-11,-4,-14,-37,-68,-59,-14,-33
1827,-18,-13,5,15,-11,-4,-13,-36,-68,-58,-13,-32
1828,-19,-13,6,16,-12,-3,-13,-36,-67,-58,-14,-33
1829,-19,-13,6,16,-12,-3,-14,-36,-67,-59,-14,-33
1830,-19,-14,5,16,-12,-4,-14,-37,-68,-58,-13,-32
1831,-20,-13,7,16,-13,-3,-15,-37,-68,-58,-14,-33
1832,-20,-13,7,16,-13,-3,-15,-37,-68,-59,-14,-33
1833,-21,-13,8,17,-14,-2,-14,-37,-67,-59,-13,-32
1834,-21,-14,7,17,-14,-3,-14,-36,-67,-58,-13,-32
1835,-20,-13,7,16,-13,-3,-14,-37,-68,-59,-13,-31
1836,-21,-14,7,17,-14,-3,-13,-37,-68,-59,-12,-32
1837,-21,-14,7,17,-14,-3,-13,-36,-67,-58,-12,-32
1838,-20,-14,6,17,-13,-4,-12,-36,-67,-58,-11,-31
1839,-20,-15,5,17,-12,-5,-12,-36,-66,-57,-12,-31
1840,-20,-15,5,17,-12,-5,-13,-37,-66,-57,-11,-32
1841,-21,-15,6,18,-13,-4,-12,-37,-67,-58,-11,-31
1842,-21,-15,6,18,-13,-4,-12,-36,-66,-58,-11,-32
1843,-20,-15,5,17,-12,-5,-13,-36,-66,-59,-11,-32
1844,-21,-14,7,17,-14,-3,-12,-37,-67,-59,-11,-31
1845,-21,-14,7,17,-14,-3,-12,-37,-67,-58,-11,-32
1846,-20,-14,6,17,-13,-4,-13,-38,-67,-58,-12,-32
1847,-21,-14,7,17,-14,-3,-13,-38,-67,-59,-11,-31
1848,-21,-13,8,17,-14,-2,-13,-37,-66,-59,-11,-31
1849,-20,-12,8,16,-14,-2,-12,-37,-67,-58,-10,-30
1850,-20,-13,7,16,-13,-3,-12,-37,-67,-59,-11,-31
1851,-20,-13,7,16,-13,-3,-13,-38,-66,-59,-11,-31
1852,-21,-12,9,16,-15,-1,-13,-38,-66,-60,-11,-30
1853,-21,-12,9,16,-15,-1,-13,-37,-67,-59,-10,-31
1854,-20,-13,7,16,-13,-3,-13,-37,-66,-59,-10,-31
1855,-21,-13,8,17,-14,-2,-12,-36,-66,-58,-11,-30
1856,-20,-13,7,16,-13,-3,-12,-36,-65,-59,-10,-31
1857,-20,-12,8,16,-14,-2,-13,-37,-66,-58,-10,-31
1858,-21,-12,9,16,-15,-1,-12,-36,-65,-58,-9,-30
1859,-20,-13,7,16,-13,-3,-12,-36,-65,-57,-9,-31
1860,-20,-12,8,16,-14,-2,-13,-37,-64,-57,-10,-31
1861,-19,-13,6,16,-12,-3,-13,-36,-65,-57,-10,-30
1862,-20,-13,7,16,-13,-3,-12,-36,-65,-56,-9,-30
1863,-20,-12,8,16,-14,-2,-12,-37,-64,-56,-9,-31
1864,-20,-13,7,16,-13,-3,-13,-36,-65,-55,-8,-30
1865,-20,-13,7,16,-13,-3,-13,-36,-65,-55,-8,-30
1866,-21,-12,9,16,-15,-1,-12,-37,-64,-56,-9,-30
1867,-21,-12,9,16,-15,-1,-13,-37,-65,-56,-9,-30
1868,-21,-12,9,16,-15,-1,-13,-37,-64,-57,-9,-30
1869,-21,-12,9,16,-15,-1,-12,-36,-64,-56,-8,-29
1870,-21,-13,8,17,-14,-2,-12,-37,-63,-56,-9,-29
1871,-21,-13,8,17,-14,-2,-11,-37,-64,-57,-8,-30
1872,-21,-13,8,17,-14,-2,-11,-36,-63,-56,-8,-29
1873,-21,-13,8,17,-14,-2,-11,-36,-62,-56,-7,-29
1874,-20,-12,8,16,-14,-2,-10,-36,-62,-55,-7,-29
1875,-20,-13,7,16,-13,-3,-11,-35,-61,-55,-6,-28
1876,-19,-12,7,15,-13,-2,-11,-35,-62,-56,-7,-28
1877,-20,-12,8,16,-14,-2,-10,-35,-62,-56,-6,-27
1878,-20,-11,9,15,-14,-1,-11,-36,-61,-55,-6,-27
1879,-19,-10,9,14,-14,0,-11,-36,-62,-55,-5,-27
1880,-20,-9,11,14,-15,1,-12,-35,-62,-54,-6,-28
1881,-20,-8,12,14,-16,2,-11,-36,-62,-54,-6,-28
1882,-19,-9,10,14,-14,0,-11,-35,-62,-55,-6,-28
1883,-19,-9,10,14,-14,0,-12,-36,-61,-55,-5,-28
1884,-20,-7,13,13,-16,3,-11,-36,-61,-54,-6,-28
1885,-19,-7,12,13,-15,2,-11,-35,-60,-54,-6,-29
1886,-19,-7,12,13,-15,2,-12,-35,-60,-53,-5,-28
1887,-19,-9,10,14,-14,0,-11,-35,-60,-53,-5,-27
1888,-19,-9,10,14,-14,0,-11,-34,-59,-52,-4,-27
1889,-20,-10,10,15,-15,0,-10,-34,-59,-53,-4,-26
1890,-20,-10,10,15,-15,0,-11,-33,-58,-52,-3,-26
1891,-20,-11,9,15,-14,-1,-10,-34,-58,-52,-3,-27
1892,-21,-12,9,16,-15,-1,-10,-33,-57,-51,-4,-26
1893,-20,-12,8,16,-14,-2,-9,-33,-58,-52,-3,-25
1894,-20,-12,8,16,-14,-2,-9,-32,-57,-52,-3,-26
1895,-21,-10,11,15,-16,0,-8,-33,-57,-52,-4,-26
1896,-20,-9,11,14,-15,1,-8,-32,-56,-52,-3,-26
1897,-20,-9,11,14,-15,1,-9,-33,-57,-51,-3,-26
1898,-19,-7,12,13,-15,2,-8,-33,-56,-51,-2,-26
1899,-18,-6,12,12,-15,3,-8,-32,-56,-50,-3,-25
1900,-17,-6,11,11,-14,2,-7,-32,-55,-50,-2,-25
1901,-17,-5,12,11,-14,3,-8,-32,-56,-51,-2,-25
1902,-17,-5,12,11,-14,3,-8,-31,-56,-51,-2,-25
1903,-17,-4,13,10,-15,4,-7,-31,-55,-50,-3,-26
1904,-17,-4,13,10,-15,4,-8,-31,-55,-51,-2,-26
1905,-18,-5,13,11,-15,4,-8,-30,-55,-51,-2,-26
1906,-18,-5,13,11,-15,4,-7,-30,-54,-50,-3,-25
1907,-17,-5,12,11,-14,3,-8,-30,-54,-50,-2,-25
1908,-17,-5,12,11,-14,3,-8,-29,-53,-49,-2,-24
1909,-18,-3,15,10,-16,6,-9,-29,-53,-49,-1,-24
1910,-17,-2,15,9,-16,6,-9,-29,-52,-49,0,-24
1911,-16,0,16,8,-16,8,-8,-28,-50,-47,1,-22
1912,-15,3,18,6,-16,10,-8,-28,-49,-45,3,-21
1913,-14,5,19,4,-16,12,-9,-27,-47,-44,4,-20
1914,-14,7,21,3,-17,14,-9,-26,-46,-42,5,-19
1915,-13,11,24,1,-18,17,-8,-26,-44,-40,7,-17
1916,-13,13,26,0,-19,19,-8,-26,-43,-39,8,-16
1917,-12,13,25,0,-18,19,-7,-24,-41,-37,10,-14
1918,-11,14,25,-1,-18,19,-8,-24,-39,-36,10,-13
1919,-11,14,25,-1,-18,19,-9,-23,-39,-36,11,-13
1920,-11,14,25,-1,-18,19,-9,-24,-38,-35,10,-12
1921,-11,14,25,-1,-18,19,-11,-23,-38,-35,10,-12
1922,-11,14,25,-1,-18,19,-12,-24,-39,-35,11,-12
1923,-11,14,25,-1,-18,19,-15,-25,-39,-36,10,-13
1924,-11,15,26,-2,-18,20,-16,-26,-41,-36,10,-13
1925,-11,15,26,-2,-18,20,-19,-28,-41,-37,9,-14
1926,-10,14,24,-2,-17,19,-20,-28,-42,-37,10,-14
1927,-9,14,23,-2,-16,18,-22,-29,-41,-36,10,-13
1928,-8,14,22,-3,-15,18,-22,-31,-41,-36,11,-13
1929,-7,13,20,-3,-13,16,-23,-31,-42,-35,11,-11
1930,-7,13,20,-3,-13,16,-23,-31,-41,-35,13,-10
1931,-6,12,18,-3,-12,15,-23,-31,-40,-33,14,-10
1932,-6,10,16,-2,-11,13,-22,-30,-40,-33,15,-8
1933,-5,9,14,-2,-9,11,-21,-30,-39,-32,16,-8
1934,-5,7,12,-1,-8,9,-21,-29,-40,-33,16,-7
1935,-6,6,12,0,-9,9,-20,-29,-39,-32,17,-7
1936,-5,6,11,0,-8,8,-21,-30,-39,-33,16,-8
1937,-5,5,10,0,-7,7,-20,-29,-40,-33,16,-8
1938,-5,3,8,1,-6,5,-20,-29,-40,-34,15,-9
1939,-6,2,8,2,-7,5,-19,-28,-41,-34,15,-10
1940,-5,3,8,1,-6,5,-19,-29,-41,-34,14,-10
1941,-5,3,8,1,-6,5,-19,-29,-42,-35,14,-11
1942,-5,3,8,1,-6,5,-18,-28,-42,-35,13,-11
1943,-5,3,8,1,-6,5,-18,-28,-41,-34,13,-12
1944,-5,3,8,1,-6,5,-17,-27,-42,-35,14,-11
1945,-5,3,8,1,-6,5,-15,-27,-41,-35,14,-12
1946,-5,3,8,1,-6,5,-15,-27,-41,-34,13,-11
1947,-6,3,9,1,-7,6,-14,-27,-42,-35,13,-11
1948,-7,2,9,2,-8,5,-14,-27,-41,-34,14,-12
1949,-8,1,9,3,-8,5,-12,-26,-41,-35,13,-12
1950,-10,-1,9,5,-9,4,-11,-25,-42,-35,12,-13
1951,-12,-1,11,6,-11,5,-11,-26,-42,-37,12,-13
1952,-14,-3,11,8,-12,4,-10,-26,-43,-38,11,-15
1953,-17,-5,12,11,-14,3,-10,-25,-43,-38,10,-16
1954,-19,-8,11,13,-15,1,-9,-25,-44,-40,8,-18
1955,-22,-10,12,16,-17,1,-8,-26,-45,-41,7,-18
1956,-23,-11,12,17,-17,0,-8,-26,-45,-41,7,-19
1957,-25,-13,12,19,-18,0,-7,-28,-47,-43,5,-21
1958,-26,-15,11,20,-18,-2,-7,-29,-49,-44,4,-22
1959,-26,-16,10,21,-18,-3,-8,-29,-49,-46,2,-22
1960,-27,-18,9,22,-18,-4,-8,-30,-50,-46,1,-23
1961,-27,-20,7,23,-17,-6,-7,-30,-50,-47,0,-24
1962,-28,-20,8,24,-18,-6,-8,-31,-52,-47,0,-24
1963,-27,-20,7,23,-17,-6,-8,-31,-52,-49,-1,-25
1964,-28,-20,8,24,-18,-6,-9,-32,-53,-49,-1,-25
1965,-28,-20,8,24,-18,-6,-9,-32,-53,-50,-2,-26
1966,-28,-20,8,24,-18,-6,-9,-31,-54,-49,-2,-25
1967,-27,-19,8,23,-17,-5,-9,-32,-54,-49,-2,-26
1968,-26,-17,9,21,-17,-4,-9,-32,-53,-48,-1,-26
1969,-26,-16,10,21,-18,-3,-10,-31,-53,-48,-1,-25
1970,-26,-16,10,21,-18,-3,-10,-31,-53,-48,0,-25
1971,-25,-16,9,20,-17,-3,-9,-30,-52,-47,0,-24
1972,-26,-16,10,21,-18,-3,-9,-30,-52,-46,1,-24
1973,-26,-16,10,21,-18,-3,-9,-29,-51,-46,1,-24
1974,-25,-15,10,20,-17,-2,-8,-29,-50,-45,1,-23
1975,-26,-16,10,21,-18,-3,-8,-28,-50,-45,2,-23
1976,-26,-16,10,21,-18,-3,-8,-28,-49,-45,2,-23
1977,-27,-16,11,21,-19,-2,-7,-28,-48,-44,3,-22
1978,-26,-16,10,21,-18,-3,-7,-27,-48,-45,2,-22
1979,-27,-14,13,20,-20,0,-7,-28,-48,-45,2,-23
1980,-26,-14,12,20,-19,-1,-8,-29,-48,-45,3,-23
1981,-26,-13,13,19,-19,0,-10,-30,-49,-45,3,-21
1982,-25,-14,11,19,-18,-1,-11,-32,-50,-45,4,-20
1983,-25,-14,11,19,-18,-1,-12,-33,-52,-45,4,-19
1984,-24,-13,11,18,-17,-1,-14,-36,-54,-46,4,-20
1985,-25,-13,12,19,-18,0,-14,-37,-55,-47,4,-20
1986,-26,-15,11,20,-18,-2,-14,-37,-55,-48,3,-20
1987,-28,-17,11,22,-19,-3,-13,-36,-53,-48,2,-22
1988,-29,-20,9,24,-19,-5,-8,-30,-50,-48,-1,-26
1989,-32,-23,9,27,-20,-7,1,-20,-41,-48,-6,-32
1990,-36,-27,9,31,-22,-9,13,-5,-28,-47,-11,-39
1991,-41,-29,12,35,-26,-8,27,14,-11,-43,-16,-46
1992,-45,-31,14,38,-29,-8,43,37,11,-36,-19,-52
1993,-46,-33,13,39,-29,-10,61,64,38,-27,-21,-57
1994,-46,-33,13,39,-29,-10,79,94,69,-12,-18,-58
1995,-42,-29,13,35,-27,-8,96,127,106,8,-8,-55
1996,-33,-17,16,25,-24,0,109,161,147,37,10,-43
1997,-18,5,23,6,-20,14,113,188,187,74,42,-20
1998,3,37,34,-20,-15,35,107,203,222,118,86,15
1999,29,79,50,-54,-10,64,92,207,250,168,140,61
2000,58,128,70,-93,-6,99,69,202,269,221,204,114
2001,89,187,98,-138,-4,142,35,181,278,276,275,177
2002,121,256,135,-188,-7,195,-11,140,270,329,351,247
2003,150,328,178,-239,-14,253,-66,78,244,376,424,317
2004,174,392,218,-283,-22,305,-126,1,200,411,488,380
2005,190,442,252,-316,-31,347,-184,-83,141,432,535,429
2006,196,475,279,-335,-41,377,-236,-166,76,437,560,460
2007,196,491,295,-343,-49,393,-283,-247,6,425,564,473
2008,189,490,301,-339,-56,395,-325,-324,-70,393,544,467
2009,173,468,295,-320,-61,381,-358,-392,-147,342,501,440
2010,149,426,277,-287,-64,351,-375,-441,-216,278,437,393
2011,120,369,249,-244,-64,309,-377,-468,-272,205,358,331
2012,90,307,217,-198,-63,262,-369,-478,-317,126,272,263
2013,62,246,184,-154,-61,215,-354,-474,-354,43,186,195
2014,36,189,153,-112,-58,171,-333,-457,-379,-36,106,132
2015,13,136,123,-74,-55,129,-304,-428,-390,-102,37,75
2016,-6,92,98,-43,-52,95,-269,-387,-385,-152,-17,29
2017,-21,57,78,-18,-49,67,-232,-340,-366,-184,-54,-6
2018,-29,33,62,-2,-45,47,-198,-292,-338,-201,-76,-30
2019,-33,16,49,8,-41,32,-167,-246,-305,-205,-84,-43
2020,-34,6,40,14,-37,23,-137,-200,-265,-194,-81,-49
2021,-32,0,32,16,-32,16,-109,-155,-218,-169,-70,-49
2022,-30,-3,27,16,-28,12,-84,-114,-168,-137,-54,-46
2023,-27,-6,21,16,-24,7,-64,-80,-124,-106,-38,-41
2024,-23,-7,16,15,-19,4,-48,-55,-87,-80,-24,-37
2025,-21,-7,14,14,-17,3,-35,-34,-57,-58,-12,-33
2026,-19,-8,11,13,-15,1,-23,-17,-32,-39,-2,-30
2027,-19,-10,9,14,-14,0,-11,-3,-12,-25,5,-27
2028,-19,-12,7,15,-13,-2,-1,7,2,-16,9,-25
2029,-19,-13,6,16,-12,-3,6,13,9,-12,11,-25
2030,-20,-14,6,17,-13,-4,12,17,13,-11,11,-25
2031,-20,-16,4,18,-12,-6,17,20,15,-11,11,-25
2032,-21,-18,3,19,-12,-7,21,23,16,-12,11,-25
2033,-22,-20,2,21,-12,-9,24,26,18,-12,10,-27
2034,-22,-21,1,21,-11,-10,26,28,19,-13,9,-28
2035,-23,-22,1,22,-12,-10,27,29,20,-13,9,-29
2036,-22,-23,-1,22,-10,-12,27,30,21,-14,8,-29
2037,-23,-23,0,23,-11,-11,28,32,22,-13,9,-30
2038,-23,-24,-1,23,-11,-12,29,33,23,-13,8,-30
2039,-24,-24,0,24,-12,-12,30,34,25,-12,9,-30
2040,-23,-24,-1,23,-11,-12,31,36,27,-11,9,-30
2041,-23,-25,-2,24,-10,-13,32,37,29,-9,10,-29
2042,-24,-26,-2,25,-11,-14,33,39,30,-8,11,-29
2043,-23,-26,-3,24,-10,-14,33,40,32,-8,11,-29
2044,-23,-27,-4,25,-9,-15,34,40,34,-6,12,-28
2045,-24,-27,-3,25,-10,-15,34,42,35,-5,12,-28
2046,-24,-27,-3,25,-10,-15,36,43,37,-5,14,-28
2047,-24,-28,-4,26,-10,-16,36,45,38,-3,14,-27
2048,-23,-28,-5,25,-9,-16,37,46,40,-2,15,-27
2049,-22,-27,-5,24,-8,-16,37,46,41,-2,15,-26
2050,-22,-26,-4,24,-9,-15,38,48,43,0,17,-25
2051,-21,-25,-4,23,-8,-14,39,49,45,1,18,-25
2052,-20,-25,-5,22,-7,-15,39,49,46,3,18,-24
2053,-20,-25,-5,22,-7,-15,40,51,48,3,19,-24
2054,-19,-24,-5,21,-7,-14,40,52,48,5,19,-24
2055,-19,-23,-4,21,-7,-13,41,52,50,5,20,-23
2056,-18,-23,-5,20,-6,-14,40,54,51,6,20,-23
2057,-17,-23,-6,20,-5,-14,41,55,53,8,21,-22
2058,-17,-22,-5,19,-6,-13,41,55,54,9,22,-22
2059,-17,-22,-5,19,-6,-13,42,56,55,11,24,-21
2060,-16,-22,-6,19,-5,-14,41,57,57,12,25,-21
2061,-16,-22,-6,19,-5,-14,42,59,58,13,25,-20
2062,-16,-22,-6,19,-5,-14,42,59,60,15,26,-20
2063,-16,-21,-5,18,-5,-13,43,60,62,16,27,-20
2064,-16,-20,-4,18,-6,-12,42,60,62,16,28,-19
2065,-16,-19,-3,17,-6,-11,42,61,64,18,28,-19
2066,-16,-18,-2,17,-7,-10,43,62,65,19,28,-18
2067,-16,-17,-1,16,-7,-9,43,62,67,19,29,-19
2068,-16,-15,1,15,-8,-7,42,63,67,20,30,-18
2069,-16,-14,2,15,-9,-6,42,63,69,22,30,-18
2070,-17,-13,4,15,-10,-4,43,64,70,22,31,-17
2071,-17,-13,4,15,-10,-4,42,66,71,23,31,-17
2072,-16,-12,4,14,-10,-4,42,67,73,25,32,-16
2073,-15,-12,3,13,-9,-4,43,67,75,26,33,-16
2074,-14,-11,3,12,-8,-4,43,68,77,28,34,-14
2075,-14,-11,3,12,-8,-4,44,70,79,30,35,-14
2076,-13,-10,3,11,-8,-3,44,71,80,31,36,-13
2077,-11,-10,1,10,-6,-4,44,73,82,33,37,-13
2078,-11,-9,2,10,-6,-3,45,74,85,34,38,-12
2079,-10,-10,0,10,-5,-5,45,76,86,37,38,-11
2080,-10,-9,1,9,-5,-4,46,77,88,38,39,-11
2081,-9,-9,0,9,-4,-4,47,80,91,40,41,-10
2082,-8,-9,-1,8,-3,-5,47,82,93,41,42,-10
2083,-9,-9,0,9,-4,-4,47,83,96,44,43,-9
2084,-9,-9,0,9,-4,-4,48,85,97,46,45,-7
2085,-8,-8,0,8,-4,-4,48,86,100,47,46,-7
2086,-7,-8,-1,7,-3,-4,49,88,102,50,48,-6
2087,-6,-8,-2,7,-2,-5,50,90,105,52,50,-4
2088,-6,-8,-2,7,-2,-5,50,91,107,53,51,-3
2089,-5,-6,-1,5,-2,-3,51,92,108,55,53,-3
2090,-3,-5,-2,4,0,-3,51,94,111,57,54,-2
2091,-2,-3,-1,2,0,-2,50,95,113,58,54,-2
2092,-2,-3,-1,2,0,-2,50,97,114,60,56,-1
2093,0,-2,-2,1,1,-2,51,100,116,61,57,-1
2094,1,0,-1,0,1,0,51,101,119,64,59,0
2095,1,0,-1,0,1,0,52,103,121,66,59,2
2096,2,1,-1,-1,1,0,52,106,125,67,61,2
2097,2,0,-2,-1,2,-1,52,108,128,70,62,3
2098,2,0,-2,-1,2,-1,53,111,130,72,64,5
2099,3,1,-2,-2,2,0,54,113,134,75,66,6
2100,3,1,-2,-2,2,0,54,117,137,77,69,8
2101,4,1,-3,-2,3,-1,55,119,141,80,70,8
2102,5,2,-3,-3,4,0,55,122,143,83,72,10
2103,5,2,-3,-3,4,0,55,124,146,85,73,11
2104,6,4,-2,-5,4,1,56,126,150,88,76,13
2105,7,5,-2,-6,4,1,56,129,153,91,77,14
2106,9,8,-1,-8,5,3,56,131,155,93,79,16
2107,11,9,-2,-10,6,3,57,134,159,96,80,17
2108,12,11,-1,-11,6,5,57,136,162,99,83,17
2109,13,13,0,-13,6,6,56,139,164,101,84,19
2110,15,14,-1,-14,8,6,56,142,168,104,87,20
2111,16,15,-1,-15,8,7,57,144,171,106,89,22
2112,17,17,0,-17,8,8,57,147,175,110,92,24
2113,18,19,1,-18,8,10,57,149,178,112,94,25
2114,18,20,2,-19,8,11,57,152,180,115,96,27
2115,19,21,2,-20,8,11,57,154,184,118,100,28
2116,20,21,1,-20,9,11,57,157,186,120,102,30
2117,21,23,2,-22,9,12,56,158,189,123,103,33
2118,22,25,3,-23,9,14,56,160,191,125,106,35
2119,22,27,5,-24,8,16,55,161,194,129,108,36
2120,23,28,5,-25,9,16,55,163,196,131,110,38
2121,25,30,5,-27,10,17,53,164,198,134,113,41
2122,26,31,5,-28,10,18,53,165,200,135,115,43
2123,27,32,5,-29,11,18,52,166,201,137,118,44
2124,29,35,6,-32,11,20,50,166,203,140,120,46
2125,30,37,7,-33,11,22,50,167,204,142,122,48
2126,32,39,7,-35,12,23,49,167,205,145,125,51
2127,34,41,7,-37,13,24,47,167,205,146,126,53
2128,35,44,9,-39,13,26,47,166,206,148,129,54
2129,36,46,10,-41,13,28,46,166,206,149,131,56
2130,37,49,12,-43,12,30,44,165,206,151,134,59
2131,38,51,13,-44,12,32,43,165,206,152,136,61
2132,39,53,14,-46,12,33,41,164,206,153,137,63
2133,39,55,16,-47,11,35,40,162,205,154,139,65
2134,40,56,16,-48,12,36,39,161,205,154,140,66
2135,41,57,16,-49,12,36,37,159,204,155,142,68
2136,41,59,18,-50,11,38,36,158,202,155,144,69
2137,41,60,19,-50,11,39,34,156,201,155,144,70
2138,42,61,19,-51,11,40,32,153,199,154,145,70
2139,43,62,19,-52,12,40,31,151,197,154,146,72
2140,44,63,19,-53,12,41,29,148,195,153,146,73
2141,44,64,20,-54,12,42,28,146,192,153,147,74
2142,44,66,22,-55,11,44,25,143,189,152,147,75
2143,45,66,21,-55,12,43,24,139,186,150,147,75
2144,46,67,21,-56,12,44,22,137,184,150,148,77
2145,46,67,21,-56,12,44,21,133,181,149,148,78
2146,47,69,22,-58,12,45,19,130,177,148,148,78
2147,46,69,23,-57,11,46,18,126,173,146,148,79
2148,46,70,24,-58,11,47,16,122,169,143,147,79
2149,46,70,24,-58,11,47,13,117,165,142,147,79
2150,46,70,24,-58,11,47,12,113,161,140,146,80
2151,46,71,25,-58,10,48,10,108,157,137,146,80
2152,45,71,26,-58,9,48,9,102,151,135,145,80
2153,44,70,26,-57,9,48,7,97,146,131,144,80
2154,44,69,25,-56,9,47,5,91,140,128,142,80
2155,43,68,25,-55,9,46,5,86,135,125,141,79
2156,42,67,25,-54,8,46,4,81,129,122,139,79
2157,41,65,24,-53,8,44,2,75,122,117,137,78
2158,39,63,24,-51,7,43,1,70,116,113,135,77
2159,38,60,22,-49,8,41,1,65,109,108,132,76
2160,37,58,21,-47,8,39,0,59,102,104,130,74
2161,35,55,20,-45,7,37,0,54,96,99,126,73
2162,34,54,20,-44,7,37,-1,48,89,94,123,71
2163,32,51,19,-41,6,35,-2,43,83,88,119,68
2164,29,49,20,-39,4,34,-2,38,75,83,114,66
2165,27,46,19,-36,4,32,-3,32,69,76,110,63
2166,24,44,20,-34,2,32,-3,28,62,71,106,59
2167,22,41,19,-31,1,30,-3,24,56,65,101,57
2168,20,39,19,-29,0,29,-3,20,50,58,97,53
2169,17,35,18,-26,0,26,-2,15,44,53,92,50
2170,15,32,17,-23,-1,24,-2,12,39,47,87,46
2171,13,29,16,-21,-1,22,-1,8,33,42,83,44
2172,10,25,15,-17,-2,20,0,5,28,36,79,40
2173,7,21,14,-14,-3,17,0,2,24,31,74,37
2174,5,18,13,-11,-4,15,1,0,19,25,69,33
2175,3,15,12,-9,-4,13,3,-3,15,20,65,29
2176,1,12,11,-6,-5,11,4,-5,10,15,60,26
2177,-1,9,10,-4,-5,9,4,-8,6,11,56,22
2178,-4,6,10,-1,-7,8,5,-10,2,5,52,18
2179,-6,5,11,0,-8,8,5,-12,-1,0,47,15
2180,-9,2,11,3,-10,6,6,-13,-5,-4,42,11
2181,-11,0,11,5,-11,5,8,-15,-8,-9,39,9
2182,-12,-3,9,7,-10,3,8,-15,-11,-13,34,6
2183,-14,-5,9,9,-11,2,9,-16,-13,-16,31,2
2184,-17,-8,9,12,-13,0,11,-18,-16,-20,27,0
2185,-19,-9,10,14,-14,0,11,-18,-18,-23,24,-3
2186,-20,-11,9,15,-14,-1,12,-18,-19,-27,21,-5
2187,-22,-14,8,18,-15,-3,14,-19,-21,-30,18,-7
2188,-23,-16,7,19,-15,-4,15,-20,-22,-32,16,-8
2189,-25,-17,8,21,-16,-4,16,-20,-22,-35,14,-10
2190,-26,-18,8,22,-17,-5,16,-21,-23,-36,11,-11
2191,-27,-20,7,23,-17,-6,17,-20,-23,-38,9,-13
2192,-28,-21,7,24,-17,-7,17,-20,-22,-39,8,-14
2193,-28,-21,7,24,-17,-7,18,-21,-22,-41,6,-16
2194,-29,-22,7,25,-18,-7,18,-21,-22,-41,5,-16
2195,-30,-24,6,27,-18,-9,18,-20,-22,-42,5,-18
2196,-30,-25,5,27,-17,-10,19,-20,-22,-42,3,-19
2197,-30,-26,4,28,-17,-11,19,-19,-22,-43,3,-19
2198,-30,-27,3,28,-16,-12,20,-19,-23,-43,2,-20
2199,-30,-28,2,29,-16,-13,20,-18,-23,-44,2,-21
2200,-31,-30,1,30,-16,-14,21,-18,-22,-44,1,-21
2201,-31,-30,1,30,-16,-14,21,-17,-23,-45,1,-22
2202,-32,-30,2,31,-17,-14,22,-17,-23,-45,1,-22
2203,-31,-31,0,31,-15,-15,23,-16,-22,-45,0,-22
2204,-32,-31,1,31,-16,-15,23,-15,-22,-45,0,-23
2205,-32,-32,0,32,-16,-16,23,-15,-21,-45,-1,-23
2206,-33,-32,1,32,-17,-15,24,-15,-21,-45,-1,-23
2207,-32,-32,0,32,-16,-16,24,-14,-20,-45,0,-24
2208,-32,-32,0,32,-16,-16,25,-14,-20,-44,-1,-24
2209,-32,-31,1,31,-16,-15,25,-13,-19,-45,-1,-23
2210,-32,-30,2,31,-17,-14,24,-13,-19,-44,-2,-23
2211,-33,-31,2,32,-17,-14,24,-13,-19,-44,-2,-24
2212,-33,-30,3,31,-18,-13,25,-12,-18,-43,-1,-24
2213,-33,-29,4,31,-18,-12,25,-12,-18,-43,-1,-25
2214,-33,-29,4,31,-18,-12,25,-12,-17,-44,-2,-25
2215,-32,-29,3,30,-17,-13,24,-11,-17,-44,-2,-24
2216,-33,-29,4,31,-18,-12,25,-11,-16,-43,-1,-24
2217,-33,-30,3,31,-18,-13,25,-11,-16,-43,-1,-25
2218,-32,-29,3,30,-17,-13,24,-11,-15,-43,-1,-25
2219,-33,-29,4,31,-18,-12,24,-10,-15,-43,-1,-24
2220,-33,-29,4,31,-18,-12,24,-10,-15,-43,-1,-24
2221,-32,-31,1,31,-16,-15,25,-9,-14,-42,0,-23
2222,-33,-31,2,32,-17,-14,24,-9,-14,-43,0,-23
2223,-33,-31,2,32,-17,-14,24,-10,-13,-43,-1,-24
2224,-32,-31,1,31,-16,-15,23,-10,-13,-42,0,-24
2225,-32,-32,0,32,-16,-16,23,-9,-14,-42,0,-23
2226,-31,-31,0,31,-15,-15,24,-9,-14,-41,-1,-23
2227,-31,-31,0,31,-15,-15,24,-9,-13,-41,-1,-22
2228,-31,-31,0,31,-15,-15,24,-9,-13,-40,0,-22
2229,-31,-30,1,30,-16,-14,23,-10,-14,-40,0,-23
2230,-31,-30,1,30,-16,-14,23,-10,-14,-41,-1,-23
2231,-31,-29,2,30,-16,-13,24,-10,-13,-41,0,-24
2232,-31,-28,3,29,-17,-12,24,-11,-13,-40,0,-23
2233,-32,-28,4,30,-18,-12,23,-11,-12,-40,-1,-23
2234,-32,-27,5,29,-18,-11,23,-10,-12,-41,-1,-22
2235,-31,-28,3,29,-17,-12,22,-10,-12,-41,0,-22
2236,-32,-27,5,29,-18,-11,22,-11,-11,-40,0,-23
2237,-32,-27,5,29,-18,-11,23,-11,-10,-40,1,-23
2238,-31,-26,5,28,-18,-10,22,-12,-10,-41,1,-22
2239,-32,-27,5,29,-18,-11,22,-12,-9,-41,0,-22
2240,-32,-28,4,30,-18,-12,23,-11,-8,-41,1,-21
2241,-31,-27,4,29,-17,-11,23,-11,-8,-41,1,-22
2242,-31,-27,4,29,-17,-11,22,-11,-7,-42,0,-21
2243,-31,-29,2,30,-16,-13,23,-12,-6,-41,0,-21
2244,-32,-29,3,30,-17,-13,23,-12,-6,-42,1,-21
2245,-31,-29,2,30,-16,-13,22,-13,-5,-42,1,-21
2246,-31,-30,1,30,-16,-14,22,-13,-5,-43,0,-22
2247,-32,-30,2,31,-17,-14,21,-14,-4,-43,0,-21
2248,-31,-30,1,30,-16,-14,21,-16,-3,-45,-1,-22
2249,-31,-30,1,30,-16,-14,20,-17,-4,-46,-1,-22
2250,-32,-29,3,30,-17,-13,20,-18,-3,-48,-2,-23
2251,-32,-29,3,30,-17,-13,19,-18,-3,-48,-3,-23
2252,-32,-29,3,30,-17,-13,19,-19,-2,-49,-3,-23
2253,-33,-28,5,30,-19,-11,18,-19,-3,-51,-4,-24
2254,-33,-28,5,30,-19,-11,18,-21,-3,-51,-4,-24
2255,-33,-28,5,30,-19,-11,17,-21,-2,-51,-5,-24
2256,-33,-28,5,30,-19,-11,18,-22,-2,-52,-5,-24
2257,-33,-28,5,30,-19,-11,18,-21,0,-52,-4,-23
2258,-33,-29,4,31,-18,-12,19,-21,0,-53,-5,-23
2259,-33,-29,4,31,-18,-12,18,-22,2,-53,-5,-22
2260,-32,-28,4,30,-18,-12,18,-22,3,-54,-5,-23
2261,-32,-29,3,30,-17,-13,18,-23,6,-54,-4,-22
2262,-32,-30,2,31,-17,-14,18,-23,8,-55,-4,-22
2263,-32,-31,1,31,-16,-15,17,-23,9,-55,-5,-23
2264,-32,-32,0,32,-16,-16,17,-24,12,-57,-5,-23
2265,-32,-31,1,31,-16,-15,17,-24,14,-57,-6,-24
2266,-31,-31,0,31,-15,-15,16,-25,16,-58,-6,-24
2267,-32,-32,0,32,-16,-16,16,-25,17,-59,-6,-24
2268,-33,-32,1,32,-17,-15,15,-26,19,-59,-7,-25
2269,-33,-34,-1,33,-16,-17,15,-25,19,-60,-7,-25
2270,-34,-34,0,34,-17,-17,16,-26,20,-60,-8,-24
2271,-34,-34,0,34,-17,-17,15,-26,20,-60,-8,-25
2272,-35,-35,0,35,-17,-17,16,-27,21,-61,-9,-25
2273,-35,-36,-1,35,-17,-18,15,-26,20,-61,-8,-24
2274,-36,-36,0,36,-18,-18,15,-27,20,-60,-8,-25
2275,-36,-37,-1,36,-17,-19,16,-27,19,-61,-9,-24
2276,-36,-37,-1,36,-17,-19,16,-27,19,-61,-9,-24
2277,-35,-36,-1,35,-17,-18,15,-28,19,-60,-8,-23
2278,-35,-36,-1,35,-17,-18,16,-28,18,-61,-9,-24
2279,-34,-35,-1,34,-16,-18,16,-29,18,-61,-9,-24
2280,-33,-35,-2,34,-15,-18,15,-28,17,-62,-9,-25
2281,-33,-36,-3,34,-15,-19,15,-29,17,-61,-9,-24
2282,-33,-36,-3,34,-15,-19,16,-29,18,-61,-9,-24
2283,-33,-35,-2,34,-15,-18,15,-30,17,-62,-10,-25
2284,-33,-35,-2,34,-15,-18,15,-30,16,-62,-10,-25
2285,-33,-34,-1,33,-16,-17,14,-31,16,-62,-10,-26
2286,-33,-34,-1,33,-16,-17,15,-31,15,-63,-10,-26
2287,-33,-35,-2,34,-15,-18,14,-30,15,-63,-11,-25
2288,-34,-34,0,34,-17,-17,14,-31,14,-63,-11,-25
2289,-35,-34,1,34,-18,-16,14,-31,12,-64,-12,-26
2290,-35,-32,3,33,-19,-14,13,-32,12,-64,-12,-26
2291,-34,-32,2,33,-18,-15,13,-31,11,-65,-13,-27
2292,-34,-31,3,32,-18,-14,12,-31,10,-64,-13,-26
2293,-34,-31,3,32,-18,-14,12,-32,8,-65,-12,-26
2294,-35,-32,3,33,-19,-14,12,-32,7,-65,-13,-27
2295,-35,-33,2,34,-18,-15,13,-33,7,-65,-13,-26
2296,-34,-33,1,33,-17,-16,13,-33,6,-65,-13,-26
2297,-34,-34,0,34,-17,-17,13,-32,6,-65,-13,-26
2298,-34,-35,-1,34,-16,-18,13,-33,5,-65,-12,-25
2299,-34,-35,-1,34,-16,-18,13,-33,5,-65,-13,-25
2300,-35,-35,0,35,-17,-17,14,-32,4,-65,-13,-24
2301,-34,-35,-1,34,-16,-18,13,-33,4,-65,-12,-24
2302,-34,-35,-1,34,-16,-18,13,-33,3,-65,-12,-24
2303,-35,-34,1,34,-18,-16,14,-32,1,-65,-13,-25
2304,-34,-32,2,33,-18,-15,13,-33,0,-66,-12,-25
2305,-34,-32,2,33,-18,-15,13,-33,0,-66,-12,-26
2306,-35,-33,2,34,-18,-15,12,-32,-1,-65,-13,-26
2307,-34,-33,1,33,-17,-16,13,-33,-1,-65,-13,-25
2308,-34,-34,0,34,-17,-17,13,-33,-2,-64,-12,-25
2309,-35,-34,1,34,-18,-16,12,-32,-3,-65,-13,-24
2310,-35,-34,1,34,-18,-16,12,-32,-5,-64,-13,-25
2311,-35,-34,1,34,-18,-16,13,-31,-6,-64,-12,-24
2312,-35,-36,-1,35,-17,-18,12,-32,-6,-63,-12,-24
2313,-36,-36,0,36,-18,-18,12,-32,-7,-64,-12,-23
2314,-36,-36,0,36,-18,-18,13,-31,-8,-64,-12,-23
2315,-35,-34,1,34,-18,-16,13,-32,-9,-64,-12,-24
2316,-36,-33,3,34,-19,-15,12,-32,-10,-63,-12,-24
2317,-36,-33,3,34,-19,-15,12,-31,-11,-63,-12,-24
2318,-35,-32,3,33,-19,-14,12,-32,-13,-64,-13,-25
2319,-36,-32,4,34,-20,-14,12,-32,-14,-64,-13,-25
2320,-36,-32,4,34,-20,-14,11,-33,-14,-65,-13,-26
2321,-35,-31,4,33,-19,-13,12,-33,-15,-64,-13,-26
2322,-34,-31,3,32,-18,-14,12,-32,-16,-64,-13,-25
2323,-33,-31,2,32,-17,-14,13,-33,-16,-63,-13,-26
2324,-33,-31,2,32,-17,-14,12,-33,-16,-64,-14,-26
2325,-34,-32,2,33,-18,-15,12,-32,-17,-64,-13,-25
2326,-33,-32,1,32,-17,-15,13,-33,-17,-63,-13,-25
2327,-33,-32,1,32,-17,-15,13,-33,-18,-63,-14,-25
2328,-34,-32,2,33,-18,-15,12,-32,-17,-63,-13,-24
2329,-34,-32,2,33,-18,-15,13,-32,-18,-62,-13,-24
2330,-34,-32,2,33,-18,-15,13,-31,-18,-62,-12,-23
2331,-35,-31,4,33,-19,-13,12,-31,-19,-61,-13,-23
2332,-35,-31,4,33,-19,-13,12,-32,-18,-61,-13,-24
2333,-36,-32,4,34,-20,-14,13,-32,-18,-61,-12,-23
2334,-36,-31,5,33,-20,-13,12,-31,-19,-60,-12,-23
2335,-36,-31,5,33,-20,-13,12,-32,-19,-60,-13,-24
2336,-35,-31,4,33,-19,-13,13,-32,-18,-61,-13,-24
2337,-35,-31,4,33,-19,-13,13,-31,-19,-60,-12,-23
2338,-35,-32,3,33,-19,-14,12,-31,-19,-60,-12,-24
2339,-35,-32,3,33,-19,-14,12,-30,-18,-61,-13,-24
2340,-34,-31,3,32,-18,-14,12,-31,-19,-61,-12,-23
2341,-34,-31,3,32,-18,-14,12,-31,-20,-60,-12,-24
2342,-35,-30,5,32,-20,-12,11,-30,-20,-61,-13,-24
2343,-34,-29,5,31,-19,-12,11,-31,-21,-61,-13,-23
2344,-34,-29,5,31,-19,-12,12,-31,-21,-60,-14,-23
2345,-35,-29,6,32,-20,-11,11,-30,-22,-61,-14,-22
2346,-35,-28,7,31,-21,-10,11,-31,-22,-61,-13,-23
2347,-35,-28,7,31,-21,-10,10,-31,-21,-60,-13,-22
2348,-34,-27,7,30,-20,-10,11,-31,-21,-61,-14,-23
2349,-33,-27,6,30,-19,-10,10,-31,-20,-61,-14,-23
2350,-34,-28,6,31,-20,-11,10,-30,-17,-60,-13,-22
2351,-33,-29,4,31,-18,-12,11,-30,-15,-60,-13,-22
2352,-33,-30,3,31,-18,-13,11,-29,-13,-60,-13,-22
2353,-34,-30,4,32,-19,-13,11,-30,-10,-59,-12,-22
2354,-33,-31,2,32,-17,-14,11,-29,-8,-59,-12,-22
2355,-34,-32,2,33,-18,-15,12,-29,-5,-58,-11,-22
2356,-34,-34,0,34,-17,-17,12,-28,-3,-58,-12,-22
2357,-35,-34,1,34,-18,-16,12,-28,-1,-59,-12,-21
2358,-34,-32,2,33,-18,-15,11,-29,0,-58,-11,-22
2359,-35,-32,3,33,-19,-14,11,-29,2,-58,-12,-22
2360,-35,-31,4,33,-19,-13,10,-30,2,-59,-12,-23
2361,-36,-31,5,33,-20,-13,9,-30,3,-58,-13,-22
2362,-35,-29,6,32,-20,-11,9,-30,5,-58,-13,-22
2363,-34,-26,8,30,-21,-9,8,-31,5,-59,-14,-23
2364,-34,-25,9,29,-21,-8,8,-31,7,-58,-14,-23
2365,-34,-24,10,29,-22,-7,7,-31,8,-58,-13,-24
2366,-34,-24,10,29,-22,-7,7,-30,8,-59,-14,-23
2367,-33,-25,8,29,-20,-8,8,-30,10,-58,-13,-23
2368,-32,-25,7,28,-19,-9,8,-30,11,-57,-12,-22
2369,-32,-25,7,28,-19,-9,9,-29,13,-57,-12,-21
2370,-32,-26,6,29,-19,-10,9,-29,14,-56,-12,-21
2371,-32,-28,4,30,-18,-12,9,-29,16,-56,-11,-20
2372,-33,-29,4,31,-18,-12,10,-28,17,-55,-11,-20
2373,-33,-30,3,31,-18,-13,10,-28,17,-56,-10,-19
2374,-33,-30,3,31,-18,-13,9,-27,18,-56,-10,-19
2375,-33,-31,2,32,-17,-14,9,-27,18,-55,-10,-20
2376,-33,-31,2,32,-17,-14,8,-28,19,-55,-11,-19
2377,-34,-31,3,32,-18,-14,8,-28,19,-55,-11,-19
2378,-35,-30,5,32,-20,-12,8,-29,20,-56,-12,-20
2379,-34,-30,4,32,-19,-13,7,-29,20,-56,-11,-20
2380,-34,-29,5,31,-19,-12,7,-28,21,-55,-11,-20
2381,-34,-30,4,32,-19,-13,8,-29,21,-55,-12,-19
2382,-33,-29,4,31,-18,-12,7,-29,22,-54,-11,-19
2383,-33,-29,4,31,-18,-12,7,-28,22,-54,-11,-20
2384,-34,-28,6,31,-20,-11,8,-28,23,-55,-12,-19
2385,-33,-27,6,30,-19,-10,7,-29,23,-54,-11,-19
2386,-32,-27,5,29,-18,-11,7,-28,23,-54,-11,-20
2387,-32,-27,5,29,-18,-11,8,-28,24,-53,-10,-20
2388,-32,-27,5,29,-18,-11,7,-29,24,-54,-11,-19
2389,-33,-27,6,30,-19,-10,7,-29,24,-54,-11,-20
2390,-33,-26,7,29,-20,-9,8,-28,25,-54,-10,-20
2391,-32,-26,6,29,-19,-10,8,-28,25,-54,-11,-19
2392,-32,-26,6,29,-19,-10,9,-27,26,-53,-10,-19
2393,-31,-25,6,28,-18,-9,9,-27,26,-53,-10,-18
2394,-32,-26,6,29,-19,-10,10,-27,27,-52,-9,-18
2395,-32,-26,6,29,-19,-10,9,-26,27,-53,-10,-19
2396,-33,-25,8,29,-20,-8,10,-26,26,-53,-10,-19
2397,-33,-26,7,29,-20,-9,10,-25,27,-52,-9,-18
2398,-33,-26,7,29,-20,-9,11,-25,27,-52,-10,-18
2399,-32,-25,7,28,-19,-9,11,-26,26,-53,-10,-19
2400,-32,-26,6,29,-19,-10,10,-26,26,-53,-11,-19
2401,-31,-25,6,28,-18,-9,11,-25,25,-52,-10,-19
2402,-30,-25,5,27,-17,-10,11,-25,25,-52,-11,-19
2403,-29,-23,6,26,-17,-8,10,-24,26,-51,-10,-19
2404,-28,-22,6,25,-17,-8,10,-24,26,-51,-10,-19
2405,-27,-19,8,23,-17,-5,11,-23,27,-50,-8,-18
2406,-26,-16,10,21,-18,-3,11,-23,28,-48,-7,-16
2407,-24,-14,10,19,-17,-2,10,-21,29,-47,-5,-15
2408,-23,-11,12,17,-17,0,10,-20,31,-45,-4,-13
2409,-23,-8,15,15,-19,3,9,-19,33,-43,-2,-12
2410,-22,-5,17,13,-19,6,9,-19,33,-40,-1,-10
2411,-21,-2,19,11,-20,8,10,-17,35,-39,1,-9
2412,-21,-1,20,11,-20,9,10,-17,35,-38,1,-8
2413,-21,1,22,10,-21,11,9,-16,36,-37,2,-7
2414,-21,1,22,10,-21,11,9,-17,36,-37,2,-8
2415,-21,1,22,10,-21,11,8,-17,36,-36,1,-8
2416,-20,1,21,9,-20,11,8,-16,35,-36,2,-7
2417,-20,-1,19,10,-19,9,7,-16,35,-37,2,-8
2418,-19,-2,17,10,-18,7,6,-16,34,-37,2,-8
2419,-19,-4,15,11,-17,5,4,-17,33,-36,1,-7
2420,-19,-6,13,12,-16,3,3,-17,33,-36,2,-7
2421,-19,-7,12,13,-15,2,1,-18,32,-35,2,-6
2422,-19,-8,11,13,-15,1,1,-19,32,-35,4,-6
2423,-18,-9,9,13,-13,0,-1,-19,32,-33,5,-4
2424,-16,-8,8,12,-12,0,-2,-20,31,-33,5,-4
2425,-16,-8,8,12,-12,0,-4,-21,29,-33,6,-4
2426,-15,-7,8,11,-11,0,-4,-23,28,-34,5,-3
2427,-15,-5,10,10,-12,2,-5,-23,27,-34,5,-3
2428,-13,-4,9,8,-11,2,-4,-24,25,-34,6,-2
2429,-13,-4,9,8,-11,2,-5,-24,24,-35,5,-2
2430,-12,-3,9,7,-10,3,-5,-25,22,-36,5,-3
2431,-13,-4,9,8,-11,2,-6,-25,20,-37,3,-3
2432,-12,-4,8,8,-10,2,-5,-25,19,-39,3,-4
2433,-12,-6,6,9,-9,0,-5,-25,17,-39,2,-5
2434,-11,-7,4,9,-7,-1,-4,-24,17,-38,3,-4
2435,-12,-10,2,11,-7,-4,-4,-24,16,-39,2,-4
2436,-12,-11,1,11,-6,-5,-3,-23,16,-39,2,-5
2437,-13,-13,0,13,-6,-6,-2,-23,15,-39,1,-5
2438,-13,-14,-1,13,-6,-7,-2,-22,14,-39,2,-6
2439,-14,-16,-2,15,-6,-9,-1,-22,14,-38,2,-6
2440,-15,-16,-1,15,-7,-8,-1,-21,14,-38,1,-5
2441,-16,-17,-1,16,-7,-9,0,-21,13,-38,1,-5
2442,-17,-17,0,17,-8,-8,1,-22,13,-39,1,-6
2443,-18,-19,-1,18,-8,-10,1,-22,12,-39,0,-6
2444,-20,-19,1,19,-10,-9,2,-21,12,-40,0,-8
2445,-22,-20,2,21,-12,-9,3,-22,10,-40,-1,-9
2446,-24,-20,4,22,-14,-8,3,-22,10,-40,-3,-9
2447,-26,-21,5,23,-15,-8,4,-21,9,-41,-3,-10
2448,-27,-22,5,24,-16,-8,4,-21,7,-43,-4,-12
2449,-28,-24,4,26,-16,-10,5,-22,7,-44,-6,-13
2450,-30,-24,6,27,-18,-9,5,-22,5,-46,-7,-15
2451,-31,-25,6,28,-18,-9,5,-23,4,-48,-8,-16
2452,-32,-26,6,29,-19,-10,4,-24,1,-49,-10,-18
2453,-33,-26,7,29,-20,-9,5,-25,0,-51,-11,-19
2454,-33,-27,6,30,-19,-10,5,-26,-1,-51,-12,-19
2455,-33,-27,6,30,-19,-10,4,-26,-3,-53,-13,-20
2456,-33,-29,4,31,-18,-12,4,-27,-4,-54,-13,-20
2457,-33,-29,4,31,-18,-12,5,-28,-6,-54,-14,-21
2458,-33,-29,4,31,-18,-12,4,-29,-7,-55,-15,-21
2459,-33,-30,3,31,-18,-13,4,-28,-7,-55,-15,-20
2460,-32,-30,2,31,-17,-14,5,-28,-8,-56,-14,-21
2461,-32,-31,1,31,-16,-15,4,-29,-8,-56,-15,-21
2462,-33,-31,2,32,-17,-14,4,-29,-9,-56,-15,-20
2463,-34,-30,4,32,-19,-13,5,-28,-9,-55,-15,-20
2464,-34,-29,5,31,-19,-12,4,-28,-8,-55,-14,-21
2465,-33,-29,4,31,-18,-12,4,-28,-8,-55,-14,-21
2466,-33,-29,4,31,-18,-12,5,-27,-9,-54,-13,-20
2467,-34,-30,4,32,-19,-13,4,-27,-9,-54,-13,-20
2468,-34,-30,4,32,-19,-13,4,-27,-9,-53,-13,-19
2469,-35,-29,6,32,-20,-11,4,-27,-8,-52,-12,-19
2470,-35,-29,6,32,-20,-11,4,-26,-9,-52,-12,-18
2471,-34,-28,6,31,-20,-11,4,-26,-9,-52,-12,-19
2472,-35,-29,6,32,-20,-11,4,-25,-9,-51,-12,-18
2473,-35,-29,6,32,-20,-11,5,-25,-9,-51,-11,-18
2474,-36,-27,9,31,-22,-9,4,-26,-9,-51,-11,-18
2475,-35,-26,9,30,-22,-8,3,-27,-9,-51,-11,-17
2476,-33,-25,8,29,-20,-8,1,-29,-11,-51,-11,-17
2477,-32,-25,7,28,-19,-9,0,-30,-13,-51,-10,-16
2478,-32,-25,7,28,-19,-9,-1,-32,-15,-51,-9,-14
2479,-32,-25,7,28,-19,-9,-2,-33,-16,-51,-8,-14
2480,-31,-25,6,28,-18,-9,-2,-34,-17,-52,-9,-15
2481,-32,-25,7,28,-19,-9,-1,-34,-17,-52,-11,-16
2482,-33,-26,7,29,-20,-9,1,-31,-16,-52,-13,-18
2483,-36,-30,6,33,-21,-12,8,-23,-10,-52,-16,-22
2484,-39,-34,5,36,-22,-14,18,-10,-1,-52,-22,-28
2485,-43,-37,6,40,-24,-15,30,6,14,-51,-28,-36
2486,-48,-40,8,44,-28,-16,45,26,33,-46,-33,-43
2487,-52,-42,10,47,-31,-16,62,50,57,-39,-37,-49
2488,-53,-43,10,48,-31,-16,80,79,85,-28,-36,-54
2489,-52,-41,11,46,-31,-15,98,112,119,-13,-31,-54
2490,-46,-36,10,41,-28,-13,114,148,158,11,-18,-47
2491,-34,-20,14,27,-24,-3,123,180,200,43,6,-31
2492,-17,7,24,5,-20,15,123,203,239,83,42,-2
2493,7,45,38,-26,-15,41,113,215,272,129,92,37
2494,35,88,53,-61,-9,70,95,216,297,181,151,87
2495,65,141,76,-103,-5,108,68,204,313,237,219,145
2496,97,205,108,-151,-5,156,30,174,316,293,293,212
2497,129,276,147,-202,-9,211,-20,124,302,346,370,283
2498,157,345,188,-251,-15,266,-78,53,267,390,441,352
2499,177,403,226,-290,-24,314,-137,-31,216,421,499,410
2500,188,446,258,-317,-35,352,-192,-118,154,436,539,452
2501,192,473,281,-332,-44,377,-243,-204,86,435,556,476
2502,189,482,293,-335,-52,387,-289,-286,13,415,551,482
2503,177,473,296,-325,-59,384,-328,-363,-65,376,522,468
2504,156,442,286,-299,-65,364,-355,-426,-141,319,469,432
2505,129,393,264,-261,-67,328,-367,-468,-207,250,397,378
2506,99,335,236,-217,-68,285,-366,-488,-259,173,313,312
2507,70,274,204,-172,-67,239,-357,-492,-302,90,225,243
2508,43,215,172,-129,-64,193,-340,-483,-335,7,140,177
2509,17,161,144,-89,-63,152,-317,-461,-357,-69,63,116
2510,-5,114,119,-54,-62,116,-286,-426,-362,-129,-1,63
2511,-22,75,97,-26,-59,86,-250,-381,-351,-173,-49,19
2512,-34,45,79,-5,-56,62,-214,-332,-328,-199,-81,-11
2513,-40,23,63,8,-51,43,-180,-283,-298,-211,-97,-31
2514,-44,10,54,17,-49,32,-150,-235,-262,-208,-102,-40
2515,-44,0,44,22,-44,22,-121,-187,-218,-191,-95,-44
2516,-41,-6,35,23,-38,14,-93,-142,-169,-162,-82,-43
2517,-38,-11,27,24,-32,8,-69,-102,-120,-130,-66,-40
2518,-34,-13,21,23,-27,4,-50,-70,-78,-100,-50,-36
2519,-32,-15,17,23,-24,1,-35,-45,-44,-76,-36,-31
2520,-30,-16,14,23,-22,-1,-22,-25,-17,-55,-25,-27
2521,-28,-18,10,23,-19,-4,-9,-9,6,-38,-16,-24
2522,-28,-20,8,24,-18,-6,1,3,23,-26,-10,-22
2523,-28,-21,7,24,-17,-7,10,10,33,-19,-7,-21
2524,-28,-22,6,25,-17,-8,16,16,38,-17,-6,-21
2525,-29,-23,6,26,-17,-8,20,20,41,-17,-6,-21
2526,-30,-25,5,27,-17,-10,25,23,41,-19,-7,-22
2527,-30,-27,3,28,-16,-12,29,25,42,-20,-8,-23
2528,-31,-28,3,29,-17,-12,31,27,43,-21,-10,-24
2529,-31,-28,3,29,-17,-12,32,29,44,-22,-11,-25
2530,-32,-29,3,30,-17,-13,33,30,44,-22,-12,-26
2531,-32,-31,1,31,-16,-15,33,32,44,-23,-12,-27
2532,-32,-32,0,32,-16,-16,34,33,46,-22,-13,-27
2533,-31,-33,-2,32,-14,-17,34,34,47,-21,-13,-28
2534,-31,-33,-2,32,-14,-17,36,36,49,-20,-12,-28
2535,-32,-33,-1,32,-15,-17,36,38,51,-19,-12,-28
2536,-32,-35,-3,33,-14,-19,37,39,53,-18,-11,-28
2537,-33,-36,-3,34,-15,-19,38,41,54,-17,-11,-27
2538,-32,-36,-4,34,-14,-20,39,42,56,-15,-10,-27
2539,-32,-36,-4,34,-14,-20,40,44,57,-14,-8,-26
2540,-33,-35,-2,34,-15,-18,40,45,59,-12,-8,-26
2541,-32,-35,-3,33,-14,-19,41,47,60,-11,-6,-25
2542,-32,-35,-3,33,-14,-19,42,47,62,-9,-6,-24
2543,-31,-34,-3,32,-14,-18,42,49,63,-8,-5,-24
2544,-31,-34,-3,32,-14,-18,43,50,64,-8,-5,-24
2545,-31,-34,-3,32,-14,-18,43,50,65,-7,-4,-23
2546,-31,-33,-2,32,-14,-17,44,52,65,-7,-4,-23
2547,-31,-33,-2,32,-14,-17,43,53,67,-6,-3,-22
2548,-31,-34,-3,32,-14,-18,44,53,68,-4,-2,-22
2549,-30,-34,-4,32,-13,-19,44,54,68,-4,-2,-23
2550,-30,-35,-5,32,-12,-20,44,54,69,-3,-1,-22
2551,-31,-35,-4,33,-13,-19,44,55,69,-2,-1,-21
2552,-31,-34,-3,32,-14,-18,45,57,70,-1,0,-21
2553,-30,-34,-4,32,-13,-19,45,58,72,1,1,-20
2554,-30,-33,-3,31,-13,-18,44,58,73,1,1,-21
2555,-29,-32,-3,30,-13,-17,44,59,73,3,2,-20
2556,-28,-31,-3,29,-12,-17,45,59,74,4,2,-20
2557,-28,-30,-2,29,-13,-16,45,61,76,6,4,-18
2558,-27,-29,-2,28,-12,-15,46,62,77,6,4,-18
2559,-27,-28,-1,27,-13,-14,46,63,79,7,5,-17
2560,-26,-26,0,26,-13,-13,45,63,80,9,5,-17
2561,-26,-26,0,26,-13,-13,45,64,81,10,5,-17
2562,-26,-25,1,25,-13,-12,46,66,83,12,7,-16
2563,-25,-26,-1,25,-12,-13,46,67,84,13,8,-15
2564,-25,-26,-1,25,-12,-13,47,69,86,14,8,-15
2565,-24,-25,-1,24,-11,-13,46,70,87,16,9,-14
2566,-24,-25,-1,24,-11,-13,47,70,89,17,11,-14
2567,-24,-25,-1,24,-11,-13,47,72,90,19,12,-13
2568,-24,-25,-1,24,-11,-13,48,73,92,20,12,-12
2569,-24,-25,-1,24,-11,-13,48,73,93,22,14,-12
2570,-24,-23,1,23,-12,-11,47,75,94,23,15,-12
2571,-23,-23,0,23,-11,-11,47,76,96,24,15,-11
2572,-23,-21,2,22,-12,-9,47,78,97,26,16,-11
2573,-23,-21,2,22,-12,-9,48,78,99,27,16,-10
2574,-22,-20,2,21,-12,-9,48,80,100,30,17,-10
2575,-22,-20,2,21,-12,-9,47,81,103,32,18,-8
2576,-21,-20,1,20,-11,-9,48,83,105,33,20,-8
2577,-21,-18,3,19,-12,-7,48,84,106,35,21,-6
2578,-20,-19,1,19,-10,-9,49,86,108,38,23,-5
2579,-20,-19,1,19,-10,-9,49,88,110,40,23,-5
2580,-19,-20,-1,19,-9,-10,50,89,112,43,25,-4
2581,-19,-18,1,18,-10,-8,49,91,113,45,26,-4
2582,-18,-17,1,17,-9,-8,50,93,115,46,27,-3
2583,-16,-15,1,15,-8,-7,50,94,118,49,28,-2
2584,-16,-16,0,16,-8,-8,50,96,120,51,30,-2
2585,-15,-15,0,15,-7,-7,49,98,121,52,31,-1
2586,-15,-14,1,14,-8,-6,49,99,124,54,31,-1
2587,-15,-11,4,13,-9,-3,50,101,126,57,33,0
2588,-14,-10,4,12,-9,-3,50,102,127,59,33,0
2589,-14,-11,3,12,-8,-4,50,104,130,61,34,1
